Batch,scan003
EV300,140607
Data Mode,A  None
Sample,"PC_22:1,MeOH"
Cycle,Cycle01
Date Collected,8/10/16
Time Collected,8:28:49PM
Entries,Data Points
nm,A
190,0.2055
190.2,0.2064
190.4,0.1576
190.6,0.2326
190.8,-0.0313
191,0.1883
191.2,0.1428
191.4,0.2736
191.6,0.25
191.8,0.0831
192,0.2064
192.2,0.1849
192.4,0.285
192.6,0.2406
192.8,0.1737
193,0.2444
193.2,0.3009
193.4,0.281
193.6,0.1974
193.8,0.1856
194,0.1778
194.2,0.2109
194.4,0.1742
194.6,0.17
194.8,0.2548
195,0.2156
195.2,0.2302
195.4,0.1624
195.6,0.2136
195.8,0.2321
196,0.2384
196.2,0.2672
196.4,0.2232
196.6,0.2587
196.8,0.265
197,0.1846
197.2,0.2244
197.4,0.2527
197.6,0.2487
197.8,0.258
198,0.2415
198.2,0.2403
198.4,0.2391
198.6,0.2418
198.8,0.2211
199,0.2486
199.2,0.2824
199.4,0.2216
199.6,0.2037
199.8,0.2268
200,0.246
200.2,0.1908
200.4,0.2704
200.6,0.2146
200.8,0.2922
201,0.2378
201.2,0.2446
201.4,0.2295
201.6,0.2509
201.8,0.2649
202,0.2424
202.2,0.2335
202.4,0.2249
202.6,0.2348
202.8,0.2506
203,0.2263
203.2,0.2664
203.4,0.2447
203.6,0.2667
203.8,0.2506
204,0.2271
204.2,0.2655
204.4,0.2821
204.6,0.253
204.8,0.2694
205,0.2696
205.2,0.2578
205.4,0.2831
205.6,0.2477
205.8,0.2647
206,0.229
206.2,0.261
206.4,0.2642
206.6,0.2885
206.8,0.2874
207,0.2703
207.2,0.2541
207.4,0.2704
207.6,0.285
207.8,0.2773
208,0.2649
208.2,0.2462
208.4,0.3048
208.6,0.2595
208.8,0.2825
209,0.2768
209.2,0.2571
209.4,0.2703
209.6,0.2915
209.8,0.2865
210,0.2669
210.2,0.2668
210.4,0.2676
210.6,0.2834
210.8,0.2898
211,0.2746
211.2,0.2667
211.4,0.2727
211.6,0.2718
211.8,0.2835
212,0.2794
212.2,0.3107
212.4,0.2631
212.6,0.2799
212.8,0.2805
213,0.2762
213.2,0.3047
213.4,0.3221
213.6,0.3184
213.8,0.3266
214,0.3228
214.2,0.3087
214.4,0.3197
214.6,0.309
214.8,0.3374
215,0.3302
215.2,0.3452
215.4,0.373
215.6,0.3513
215.8,0.3732
216,0.3687
216.2,0.3949
216.4,0.4205
216.6,0.4323
216.8,0.44
217,0.4699
217.2,0.4896
217.4,0.4927
217.6,0.5018
217.8,0.5287
218,0.5368
218.2,0.5693
218.4,0.5641
218.6,0.5753
218.8,0.6086
219,0.6305
219.2,0.6467
219.4,0.655
219.6,0.6829
219.8,0.7034
220,0.7249
220.2,0.7317
220.4,0.7517
220.6,0.7673
220.8,0.7832
221,0.8054
221.2,0.8174
221.4,0.8345
221.6,0.8555
221.8,0.8613
222,0.8766
222.2,0.8912
222.4,0.8979
222.6,0.9027
222.8,0.9064
223,0.8214
223.2,0.8249
223.4,0.8278
223.6,0.8316
223.8,0.8434
224,0.8506
224.2,0.8562
224.4,0.8603
224.6,0.8607
224.8,0.8596
225,0.8583
225.2,0.8548
225.4,0.8525
225.6,0.8512
225.8,0.8487
226,0.8412
226.2,0.8423
226.4,0.8369
226.6,0.8326
226.8,0.825
227,0.8182
227.2,0.8067
227.4,0.7928
227.6,0.7829
227.8,0.7721
228,0.7627
228.2,0.7512
228.4,0.7407
228.6,0.7289
228.8,0.7181
229,0.7084
229.2,0.6996
229.4,0.6895
229.6,0.6806
229.8,0.6703
230,0.6588
230.2,0.6471
230.4,0.6335
230.6,0.6197
230.8,0.6062
231,0.5923
231.2,0.5809
231.4,0.5706
231.6,0.5609
231.8,0.5498
232,0.5401
232.2,0.5292
232.4,0.5172
232.6,0.5053
232.8,0.4931
233,0.4812
233.2,0.4687
233.4,0.4575
233.6,0.4462
233.8,0.4359
234,0.4262
234.2,0.4183
234.4,0.4103
234.6,0.4007
234.8,0.3918
235,0.3828
235.2,0.3731
235.4,0.3646
235.6,0.3551
235.8,0.3457
236,0.3367
236.2,0.3282
236.4,0.3198
236.6,0.3125
236.8,0.3054
237,0.298
237.2,0.2894
237.4,0.2813
237.6,0.2735
237.8,0.2664
238,0.2581
238.2,0.2513
238.4,0.2449
238.6,0.2387
238.8,0.2311
239,0.2259
239.2,0.22
239.4,0.2134
239.6,0.2064
239.8,0.2014
240,0.1957
240.2,0.1899
240.4,0.1854
240.6,0.1796
240.8,0.1749
241,0.1697
241.2,0.1653
241.4,0.1605
241.6,0.1558
241.8,0.1513
242,0.1464
242.2,0.1434
242.4,0.1391
242.6,0.1355
242.8,0.1326
243,0.1293
243.2,0.1267
243.4,0.1234
243.6,0.1204
243.8,0.1177
244,0.1149
244.2,0.1119
244.4,0.1078
244.6,0.1048
244.8,0.1018
245,0.098
245.2,0.0954
245.4,0.0925
245.6,0.0891
245.8,0.0858
246,0.0838
246.2,0.0805
246.4,0.0777
246.6,0.075
246.8,0.072
247,0.0702
247.2,0.0676
247.4,0.0662
247.6,0.0646
247.8,0.0632
248,0.0617
248.2,0.0597
248.4,0.0583
248.6,0.0568
248.8,0.0549
249,0.0537
249.2,0.0522
249.4,0.0508
249.6,0.0499
249.8,0.0486
250,0.0474
250.2,0.0457
250.4,0.0448
250.6,0.0435
250.8,0.0424
251,0.0418
251.2,0.0403
251.4,0.0397
251.6,0.0385
251.8,0.038
252,0.0371
252.2,0.0363
252.4,0.036
252.6,0.0357
252.8,0.0355
253,0.0347
253.2,0.0341
253.4,0.034
253.6,0.0334
253.8,0.0331
254,0.0326
254.2,0.0327
254.4,0.0322
254.6,0.0317
254.8,0.0313
255,0.0313
255.2,0.0309
255.4,0.0313
255.6,0.0302
255.8,0.0302
256,0.0307
256.2,0.0298
256.4,0.029
256.6,0.0296
256.8,0.0294
257,0.0292
257.2,0.0297
257.4,0.0292
257.6,0.0293
257.8,0.0292
258,0.0294
258.2,0.0295
258.4,0.0293
258.6,0.0288
258.8,0.0287
259,0.0284
259.2,0.0286
259.4,0.0286
259.6,0.0282
259.8,0.0282
260,0.0279
260.2,0.0282
260.4,0.028
260.6,0.0284
260.8,0.0284
261,0.0282
261.2,0.0282
261.4,0.0286
261.6,0.0284
261.8,0.028
262,0.0286
262.2,0.0279
262.4,0.0286
262.6,0.0284
262.8,0.0281
263,0.0285
263.2,0.029
263.4,0.0285
263.6,0.0281
263.8,0.0285
264,0.0285
264.2,0.0288
264.4,0.0289
264.6,0.0282
264.8,0.0284
265,0.0286
265.2,0.0286
265.4,0.0283
265.6,0.0286
265.8,0.0288
266,0.029
266.2,0.0289
266.4,0.0285
266.6,0.0284
266.8,0.0286
267,0.029
267.2,0.0289
267.4,0.029
267.6,0.0289
267.8,0.0295
268,0.029
268.2,0.0289
268.4,0.029
268.6,0.0291
268.8,0.0291
269,0.0292
269.2,0.0292
269.4,0.0288
269.6,0.0295
269.8,0.0289
270,0.0291
270.2,0.029
270.4,0.0287
270.6,0.0286
270.8,0.0285
271,0.0287
271.2,0.0289
271.4,0.0283
271.6,0.0282
271.8,0.0268
272,0.0279
272.2,0.0281
272.4,0.0285
272.6,0.0283
272.8,0.0286
273,0.028
273.2,0.0281
273.4,0.0282
273.6,0.0279
273.8,0.0279
274,0.0279
274.2,0.0276
274.4,0.0277
274.6,0.0279
274.8,0.0276
275,0.0278
275.2,0.0272
275.4,0.0269
275.6,0.0267
275.8,0.0269
276,0.0277
276.2,0.0261
276.4,0.0271
276.6,0.0267
276.8,0.0265
277,0.0266
277.2,0.0265
277.4,0.0266
277.6,0.0267
277.8,0.0262
278,0.0264
278.2,0.027
278.4,0.0268
278.6,0.0266
278.8,0.0261
279,0.0266
279.2,0.0262
279.4,0.0268
279.6,0.0261
279.8,0.0263
280,0.026
280.2,0.0258
280.4,0.0256
280.6,0.0261
280.8,0.0254
281,0.0259
281.2,0.0257
281.4,0.0262
281.6,0.0251
281.8,0.026
282,0.0248
282.2,0.0245
282.4,0.0246
282.6,0.0246
282.8,0.024
283,0.0247
283.2,0.0243
283.4,0.0247
283.6,0.024
283.8,0.0234
284,0.0236
284.2,0.0234
284.4,0.0231
284.6,0.0219
284.8,0.0228
285,0.0223
285.2,0.0224
285.4,0.0222
285.6,0.0214
285.8,0.0213
286,0.0216
286.2,0.0209
286.4,0.0205
286.6,0.0208
286.8,0.0199
287,0.0205
287.2,0.0199
287.4,0.0197
287.6,0.0194
287.8,0.0193
288,0.0193
288.2,0.0197
288.4,0.0192
288.6,0.0188
288.8,0.0192
289,0.0191
289.2,0.0184
289.4,0.0181
289.6,0.0185
289.8,0.0182
290,0.0182
290.2,0.0173
290.4,0.0183
290.6,0.0177
290.8,0.018
291,0.018
291.2,0.0178
291.4,0.017
291.6,0.0174
291.8,0.017
292,0.0181
292.2,0.0175
292.4,0.0174
292.6,0.0168
292.8,0.0175
293,0.0169
293.2,0.0171
293.4,0.0166
293.6,0.0169
293.8,0.017
294,0.0174
294.2,0.0168
294.4,0.0166
294.6,0.0165
294.8,0.0162
295,0.0162
295.2,0.0162
295.4,0.0166
295.6,0.0164
295.8,0.0161
296,0.0166
296.2,0.0163
296.4,0.0167
296.6,0.0161
296.8,0.0156
297,0.016
297.2,0.0156
297.4,0.0161
297.6,0.0159
297.8,0.0159
298,0.0155
298.2,0.0155
298.4,0.0165
298.6,0.0163
298.8,0.0165
299,0.016
299.2,0.0157
299.4,0.0158
299.6,0.0158
299.8,0.0156
300,0.0164
300.2,0.016
300.4,0.0165
300.6,0.0166
300.8,0.0157
301,0.0163
301.2,0.0162
301.4,0.0153
301.6,0.016
301.8,0.0163
302,0.0161
302.2,0.0157
302.4,0.0159
302.6,0.0159
302.8,0.0162
303,0.0159
303.2,0.0164
303.4,0.0156
303.6,0.0161
303.8,0.0164
304,0.0164
304.2,0.0163
304.4,0.0159
304.6,0.0153
304.8,0.0156
305,0.0158
305.2,0.0154
305.4,0.0159
305.6,0.0157
305.8,0.0156
306,0.0161
306.2,0.0154
306.4,0.0157
306.6,0.0156
306.8,0.0158
307,0.0156
307.2,0.0153
307.4,0.0154
307.6,0.0155
307.8,0.0157
308,0.0156
308.2,0.0154
308.4,0.0158
308.6,0.0154
308.8,0.0153
309,0.0156
309.2,0.0158
309.4,0.0154
309.6,0.0158
309.8,0.0153
310,0.0161
310.2,0.0152
310.4,0.0149
310.6,0.015
310.8,0.0152
311,0.0152
311.2,0.0149
311.4,0.0152
311.6,0.0151
311.8,0.0149
312,0.0149
312.2,0.0149
312.4,0.015
312.6,0.0151
312.8,0.0153
313,0.015
313.2,0.015
313.4,0.0149
313.6,0.0147
313.8,0.0148
314,0.0145
314.2,0.0147
314.4,0.0151
314.6,0.0149
314.8,0.0144
315,0.0149
315.2,0.015
315.4,0.0143
315.6,0.0147
315.8,0.0149
316,0.0141
316.2,0.0145
316.4,0.0141
316.6,0.0142
316.8,0.0144
317,0.0143
317.2,0.0141
317.4,0.0144
317.6,0.0142
317.8,0.0143
318,0.014
318.2,0.0145
318.4,0.014
318.6,0.0143
318.8,0.0144
319,0.0139
319.2,0.0141
319.4,0.0139
319.6,0.0137
319.8,0.0134
320,0.014
320.2,0.0133
320.4,0.0136
320.6,0.0132
320.8,0.0135
321,0.0134
321.2,0.0132
321.4,0.0131
321.6,0.0138
321.8,0.0137
322,0.0128
322.2,0.0123
322.4,0.0129
322.6,0.0128
322.8,0.0132
323,0.013
323.2,0.0129
323.4,0.0125
323.6,0.0127
323.8,0.0126
324,0.0129
324.2,0.0128
324.4,0.0131
324.6,0.0123
324.8,0.0127
325,0.0122
325.2,0.013
325.4,0.0114
325.6,0.0127
325.8,0.0116
326,0.0122
326.2,0.0122
326.4,0.0118
326.6,0.0122
326.8,0.0123
327,0.0122
327.2,0.0125
327.4,0.0124
327.6,0.0125
327.8,0.0119
328,0.0122
328.2,0.0115
328.4,0.0121
328.6,0.0115
328.8,0.0122
329,0.0117
329.2,0.0122
329.4,0.0123
329.6,0.0115
329.8,0.0116
330,0.012
330.2,0.0117
330.4,0.0117
330.6,0.0119
330.8,0.0117
331,0.0112
331.2,0.0114
331.4,0.0115
331.6,0.0119
331.8,0.0116
332,0.0113
332.2,0.0114
332.4,0.0116
332.6,0.0115
332.8,0.0115
333,0.0117
333.2,0.0109
333.4,0.0108
333.6,0.0111
333.8,0.0103
334,0.0113
334.2,0.0108
334.4,0.0107
334.6,0.0109
334.8,0.0109
335,0.0104
335.2,0.0112
335.4,0.0113
335.6,0.0106
335.8,0.0105
336,0.0112
336.2,0.0104
336.4,0.0107
336.6,0.0108
336.8,0.0105
337,0.0104
337.2,0.0104
337.4,0.0112
337.6,0.0109
337.8,0.0102
338,0.0106
338.2,0.0103
338.4,0.0104
338.6,0.0107
338.8,0.0105
339,0.0103
339.2,0.0103
339.4,0.0091
339.6,0.0103
339.8,0.0102
340,0.0102
340.2,0.0097
340.4,0.0098
340.6,0.0098
340.8,0.01
341,0.0095
341.2,0.0095
341.4,0.01
341.6,0.0105
341.8,0.0102
342,0.0101
342.2,0.0101
342.4,0.0101
342.6,0.0095
342.8,0.0099
343,0.0101
343.2,0.0101
343.4,0.0092
343.6,0.0096
343.8,0.0093
344,0.0095
344.2,0.0086
344.4,0.0095
344.6,0.0091
344.8,0.0097
345,0.0091
345.2,0.0094
345.4,0.0091
345.6,0.0101
345.8,0.0093
346,0.0094
346.2,0.0092
346.4,0.0093
346.6,0.0089
346.8,0.01
347,0.0089
347.2,0.0097
347.4,0.0092
347.6,0.0093
347.8,0.0098
348,0.0095
348.2,0.0094
348.4,0.0091
348.6,0.0086
348.8,0.0094
349,0.0092
349.2,0.0089
349.4,0.0086
349.6,0.0099
349.8,0.0089
350,0.0094
350.2,0.0087
350.4,0.0091
350.6,0.0085
350.8,0.0086
351,0.0085
351.2,0.0089
351.4,0.0086
351.6,0.0087
351.8,0.0082
352,0.0086
352.2,0.0095
352.4,0.0088
352.6,0.009
352.8,0.0094
353,0.0081
353.2,0.0094
353.4,0.0088
353.6,0.0087
353.8,0.0082
354,0.0081
354.2,0.0082
354.4,0.0081
354.6,0.009
354.8,0.0088
355,0.0082
355.2,0.0094
355.4,0.0085
355.6,0.0083
355.8,0.0091
356,0.0083
356.2,0.0093
356.4,0.009
356.6,0.0092
356.8,0.0093
357,0.0089
357.2,0.0085
357.4,0.0083
357.6,0.0085
357.8,0.0085
358,0.0083
358.2,0.0085
358.4,0.0087
358.6,0.0081
358.8,0.0079
359,0.0081
359.2,0.0084
359.4,0.0087
359.6,0.0082
359.8,0.0093
360,0.0088
360.2,0.0091
360.4,0.008
360.6,0.0079
360.8,0.0082
361,0.0087
361.2,0.0082
361.4,0.008
361.6,0.0082
361.8,0.0079
362,0.0084
362.2,0.0082
362.4,0.0088
362.6,0.008
362.8,0.0085
363,0.0089
363.2,0.0085
363.4,0.0087
363.6,0.0085
363.8,0.0085
364,0.0087
364.2,0.0077
364.4,0.0085
364.6,0.0086
364.8,0.0086
365,0.0082
365.2,0.0082
365.4,0.0089
365.6,0.0085
365.8,0.0085
366,0.009
366.2,0.0078
366.4,0.0089
366.6,0.0088
366.8,0.0086
367,0.0086
367.2,0.0085
367.4,0.008
367.6,0.0083
367.8,0.0085
368,0.0082
368.2,0.0088
368.4,0.0085
368.6,0.0082
368.8,0.0084
369,0.0079
369.2,0.0084
369.4,0.0086
369.6,0.0077
369.8,0.0078
370,0.0088
370.2,0.0075
370.4,0.0082
370.6,0.0085
370.8,0.0081
371,0.0082
371.2,0.0085
371.4,0.0086
371.6,0.0079
371.8,0.0076
372,0.0091
372.2,0.0078
372.4,0.0074
372.6,0.0076
372.8,0.0075
373,0.0077
373.2,0.0075
373.4,0.0079
373.6,0.0084
373.8,0.0083
374,0.0079
374.2,0.0082
374.4,0.0076
374.6,0.0068
374.8,0.0076
375,0.0088
375.2,0.0083
375.4,0.0075
375.6,0.0076
375.8,0.0081
376,0.0068
376.2,0.0074
376.4,0.0076
376.6,0.0067
376.8,0.0076
377,0.0072
377.2,0.008
377.4,0.0077
377.6,0.0079
377.8,0.0074
378,0.0073
378.2,0.0075
378.4,0.0082
378.6,0.0081
378.8,0.0078
379,0.0071
379.2,0.0081
379.4,0.008
379.6,0.0074
379.8,0.0086
380,0.0084
380.2,0.0075
380.4,0.0075
380.6,0.0078
380.8,0.0082
381,0.0073
381.2,0.0078
381.4,0.0077
381.6,0.0077
381.8,0.0074
382,0.0081
382.2,0.0074
382.4,0.0076
382.6,0.008
382.8,0.0075
383,0.0072
383.2,0.0074
383.4,0.0081
383.6,0.0078
383.8,0.0075
384,0.0076
384.2,0.007
384.4,0.0078
384.6,0.0071
384.8,0.0078
385,0.0072
385.2,0.0076
385.4,0.007
385.6,0.008
385.8,0.0074
386,0.0074
386.2,0.0073
386.4,0.0078
386.6,0.007
386.8,0.0066
387,0.007
387.2,0.0073
387.4,0.0079
387.6,0.0064
387.8,0.0075
388,0.007
388.2,0.0075
388.4,0.0075
388.6,0.0071
388.8,0.0072
389,0.0076
389.2,0.0068
389.4,0.0067
389.6,0.007
389.8,0.0075
390,0.007
390.2,0.0074
390.4,0.0072
390.6,0.0073
390.8,0.007
391,0.0072
391.2,0.0074
391.4,0.0074
391.6,0.0073
391.8,0.0072
392,0.0076
392.2,0.0073
392.4,0.0074
392.6,0.0075
392.8,0.0074
393,0.007
393.2,0.0078
393.4,0.0076
393.6,0.007
393.8,0.0071
394,0.0071
394.2,0.0075
394.4,0.0066
394.6,0.007
394.8,0.0074
395,0.0076
395.2,0.0074
395.4,0.0075
395.6,0.007
395.8,0.0066
396,0.0081
396.2,0.0075
396.4,0.0078
396.6,0.0077
396.8,0.0079
397,0.0071
397.2,0.0072
397.4,0.0072
397.6,0.0077
397.8,0.0077
398,0.008
398.2,0.0068
398.4,0.0076
398.6,0.0063
398.8,0.0068
399,0.0077
399.2,0.0078
399.4,0.0067
399.6,0.0077
399.8,0.0065
400,0.0073
400.2,0.0081
400.4,0.0076
400.6,0.0071
400.8,0.0077
401,0.0069
401.2,0.007
401.4,0.007
401.6,0.0071
401.8,0.0076
402,0.0079
402.2,0.0077
402.4,0.007
402.6,0.0075
402.8,0.007
403,0.0075
403.2,0.007
403.4,0.0067
403.6,0.0069
403.8,0.0064
404,0.0069
404.2,0.0072
404.4,0.0071
404.6,0.007
404.8,0.0078
405,0.0071
405.2,0.0075
405.4,0.0075
405.6,0.0074
405.8,0.007
406,0.0072
406.2,0.0075
406.4,0.0077
406.6,0.0073
406.8,0.0075
407,0.0072
407.2,0.0074
407.4,0.0074
407.6,0.0068
407.8,0.0072
408,0.0068
408.2,0.0076
408.4,0.0075
408.6,0.0069
408.8,0.0074
409,0.0076
409.2,0.0075
409.4,0.0076
409.6,0.0077
409.8,0.0069
410,0.0073
410.2,0.0076
410.4,0.0076
410.6,0.0073
410.8,0.0074
411,0.0074
411.2,0.0073
411.4,0.0076
411.6,0.0076
411.8,0.0075
412,0.0075
412.2,0.0073
412.4,0.0072
412.6,0.0072
412.8,0.0072
413,0.0077
413.2,0.0073
413.4,0.0078
413.6,0.0077
413.8,0.0071
414,0.0072
414.2,0.0072
414.4,0.0073
414.6,0.0066
414.8,0.0071
415,0.0073
415.2,0.007
415.4,0.0071
415.6,0.007
415.8,0.0067
416,0.0071
416.2,0.0074
416.4,0.0065
416.6,0.0071
416.8,0.0072
417,0.007
417.2,0.0069
417.4,0.007
417.6,0.0067
417.8,0.0068
418,0.007
418.2,0.0066
418.4,0.0064
418.6,0.0073
418.8,0.0069
419,0.007
419.2,0.0071
419.4,0.0072
419.6,0.0071
419.8,0.0071
420,0.0071
420.2,0.0068
420.4,0.0074
420.6,0.007
420.8,0.0073
421,0.0071
421.2,0.0073
421.4,0.0072
421.6,0.007
421.8,0.0071
422,0.0073
422.2,0.0073
422.4,0.0072
422.6,0.0073
422.8,0.0069
423,0.0071
423.2,0.0072
423.4,0.0072
423.6,0.007
423.8,0.0068
424,0.0074
424.2,0.0067
424.4,0.0068
424.6,0.0067
424.8,0.0071
425,0.0069
425.2,0.0071
425.4,0.0067
425.6,0.0072
425.8,0.0068
426,0.0069
426.2,0.0072
426.4,0.0073
426.6,0.0069
426.8,0.0067
427,0.007
427.2,0.0066
427.4,0.0073
427.6,0.0069
427.8,0.0071
428,0.0065
428.2,0.0066
428.4,0.0071
428.6,0.0072
428.8,0.0063
429,0.0072
429.2,0.0066
429.4,0.0061
429.6,0.0067
429.8,0.0074
430,0.0067
430.2,0.0067
430.4,0.007
430.6,0.0069
430.8,0.0064
431,0.0069
431.2,0.0069
431.4,0.0063
431.6,0.0073
431.8,0.0069
432,0.0068
432.2,0.0068
432.4,0.0067
432.6,0.0071
432.8,0.0068
433,0.0066
433.2,0.0073
433.4,0.007
433.6,0.0067
433.8,0.0068
434,0.0065
434.2,0.0065
434.4,0.0068
434.6,0.0071
434.8,0.0063
435,0.0063
435.2,0.0071
435.4,0.0068
435.6,0.0069
435.8,0.0066
436,0.0063
436.2,0.0061
436.4,0.0067
436.6,0.0059
436.8,0.0062
437,0.0069
437.2,0.0062
437.4,0.0063
437.6,0.0066
437.8,0.0063
438,0.0064
438.2,0.0063
438.4,0.0065
438.6,0.0067
438.8,0.0063
439,0.0065
439.2,0.0064
439.4,0.0068
439.6,0.0063
439.8,0.0061
440,0.0063
440.2,0.006
440.4,0.0061
440.6,0.0061
440.8,0.0068
441,0.0061
441.2,0.0068
441.4,0.0063
441.6,0.0067
441.8,0.0061
442,0.0061
442.2,0.0063
442.4,0.0065
442.6,0.0061
442.8,0.006
443,0.0064
443.2,0.0062
443.4,0.0063
443.6,0.0063
443.8,0.0063
444,0.0061
444.2,0.0063
444.4,0.0061
444.6,0.0065
444.8,0.0066
445,0.006
445.2,0.0065
445.4,0.0068
445.6,0.0066
445.8,0.0066
446,0.0062
446.2,0.0063
446.4,0.0066
446.6,0.0064
446.8,0.0059
447,0.0063
447.2,0.0067
447.4,0.006
447.6,0.0063
447.8,0.0059
448,0.0067
448.2,0.0057
448.4,0.0057
448.6,0.0059
448.8,0.0056
449,0.0064
449.2,0.0055
449.4,0.0059
449.6,0.0063
449.8,0.0053
450,0.006
450.2,0.0057
450.4,0.0059
450.6,0.0051
450.8,0.0057
451,0.0067
451.2,0.006
451.4,0.0059
451.6,0.0058
451.8,0.0062
452,0.0058
452.2,0.0058
452.4,0.0067
452.6,0.0061
452.8,0.006
453,0.0057
453.2,0.0052
453.4,0.0059
453.6,0.0059
453.8,0.0061
454,0.0054
454.2,0.0055
454.4,0.0056
454.6,0.0057
454.8,0.0054
455,0.0054
455.2,0.006
455.4,0.0058
455.6,0.0056
455.8,0.0053
456,0.0055
456.2,0.0055
456.4,0.0056
456.6,0.0056
456.8,0.0055
457,0.0057
457.2,0.0056
457.4,0.0057
457.6,0.0059
457.8,0.0054
458,0.0058
458.2,0.0053
458.4,0.0059
458.6,0.0053
458.8,0.0055
459,0.0055
459.2,0.0052
459.4,0.0056
459.6,0.0056
459.8,0.0051
460,0.0054
460.2,0.0059
460.4,0.0057
460.6,0.0058
460.8,0.0057
461,0.0059
461.2,0.0059
461.4,0.0055
461.6,0.0059
461.8,0.0059
462,0.0068
462.2,0.0056
462.4,0.0055
462.6,0.0062
462.8,0.0056
463,0.0049
463.2,0.0061
463.4,0.006
463.6,0.0059
463.8,0.0057
464,0.0056
464.2,0.0056
464.4,0.0059
464.6,0.0051
464.8,0.0054
465,0.0053
465.2,0.0056
465.4,0.0057
465.6,0.0056
465.8,0.0055
466,0.0058
466.2,0.0052
466.4,0.0053
466.6,0.0056
466.8,0.006
467,0.0056
467.2,0.0051
467.4,0.0058
467.6,0.0057
467.8,0.0054
468,0.0056
468.2,0.0055
468.4,0.0054
468.6,0.0058
468.8,0.0053
469,0.0057
469.2,0.0058
469.4,0.0054
469.6,0.0051
469.8,0.0056
470,0.0046
470.2,0.0053
470.4,0.0052
470.6,0.0058
470.8,0.0057
471,0.0053
471.2,0.005
471.4,0.0053
471.6,0.0056
471.8,0.0061
472,0.0058
472.2,0.0059
472.4,0.0056
472.6,0.0058
472.8,0.0057
473,0.0057
473.2,0.006
473.4,0.0058
473.6,0.0058
473.8,0.0055
474,0.0059
474.2,0.0047
474.4,0.0054
474.6,0.0053
474.8,0.0051
475,0.0061
475.2,0.0053
475.4,0.0056
475.6,0.0054
475.8,0.0054
476,0.0056
476.2,0.0059
476.4,0.0053
476.6,0.0059
476.8,0.0053
477,0.0057
477.2,0.0061
477.4,0.0062
477.6,0.0058
477.8,0.006
478,0.0059
478.2,0.0058
478.4,0.0058
478.6,0.0057
478.8,0.0065
479,0.006
479.2,0.006
479.4,0.0059
479.6,0.006
479.8,0.0056
480,0.0054
480.2,0.0063
480.4,0.0053
480.6,0.0062
480.8,0.0059
481,0.0061
481.2,0.0061
481.4,0.0062
481.6,0.0058
481.8,0.0057
482,0.0058
482.2,0.0055
482.4,0.0058
482.6,0.0059
482.8,0.0058
483,0.0055
483.2,0.0055
483.4,0.0058
483.6,0.0058
483.8,0.0056
484,0.0058
484.2,0.0058
484.4,0.006
484.6,0.0059
484.8,0.0065
485,0.0063
485.2,0.0059
485.4,0.0062
485.6,0.0058
485.8,0.0067
486,0.0057
486.2,0.0059
486.4,0.0059
486.6,0.0056
486.8,0.0051
487,0.0058
487.2,0.0057
487.4,0.006
487.6,0.0058
487.8,0.0059
488,0.0058
488.2,0.0058
488.4,0.0061
488.6,0.0058
488.8,0.0058
489,0.0057
489.2,0.0058
489.4,0.0057
489.6,0.0052
489.8,0.0059
490,0.0055
490.2,0.0057
490.4,0.0051
490.6,0.0056
490.8,0.0055
491,0.0049
491.2,0.0054
491.4,0.0056
491.6,0.0052
491.8,0.006
492,0.0059
492.2,0.0056
492.4,0.0059
492.6,0.006
492.8,0.0054
493,0.0052
493.2,0.0059
493.4,0.0055
493.6,0.0065
493.8,0.0058
494,0.0055
494.2,0.0052
494.4,0.0048
494.6,0.0051
494.8,0.0049
495,0.0055
495.2,0.0058
495.4,0.0052
495.6,0.0057
495.8,0.0051
496,0.0049
496.2,0.0061
496.4,0.0058
496.6,0.0048
496.8,0.0057
497,0.0054
497.2,0.0054
497.4,0.0058
497.6,0.0059
497.8,0.0055
498,0.0051
498.2,0.0058
498.4,0.0053
498.6,0.0055
498.8,0.0053
499,0.0058
499.2,0.0055
499.4,0.006
499.6,0.0057
499.8,0.0048
500,0.0051
500.2,0.0052
500.4,0.0056
500.6,0.006
500.8,0.0055
501,0.0051
501.2,0.0063
501.4,0.0054
501.6,0.0051
501.8,0.0062
502,0.0059
502.2,0.0049
502.4,0.0052
502.6,0.0056
502.8,0.0054
503,0.0053
503.2,0.0044
503.4,0.0053
503.6,0.0053
503.8,0.0053
504,0.0059
504.2,0.006
504.4,0.0052
504.6,0.0053
504.8,0.005
505,0.0057
505.2,0.0049
505.4,0.0055
505.6,0.006
505.8,0.0053
506,0.0048
506.2,0.0057
506.4,0.0052
506.6,0.0049
506.8,0.0049
507,0.0049
507.2,0.0053
507.4,0.0045
507.6,0.0054
507.8,0.0037
508,0.0054
508.2,0.0049
508.4,0.0045
508.6,0.0047
508.8,0.005
509,0.0048
509.2,0.0047
509.4,0.0055
509.6,0.0053
509.8,0.0045
510,0.0044
510.2,0.0049
510.4,0.0051
510.6,0.0048
510.8,0.0043
511,0.0041
511.2,0.0055
511.4,0.0052
511.6,0.0055
511.8,0.0052
512,0.0049
512.2,0.0054
512.4,0.0057
512.6,0.0047
512.8,0.005
513,0.0048
513.2,0.005
513.4,0.0046
513.6,0.0051
513.8,0.0047
514,0.0047
514.2,0.0051
514.4,0.005
514.6,0.0043
514.8,0.0045
515,0.0052
515.2,0.0045
515.4,0.0053
515.6,0.0049
515.8,0.0051
516,0.0049
516.2,0.0046
516.4,0.0041
516.6,0.0046
516.8,0.0044
517,0.0048
517.2,0.0046
517.4,0.0048
517.6,0.0057
517.8,0.0047
518,0.005
518.2,0.0051
518.4,0.005
518.6,0.0046
518.8,0.0051
519,0.0046
519.2,0.0054
519.4,0.0051
519.6,0.0052
519.8,0.0047
520,0.0052
520.2,0.0048
520.4,0.0048
520.6,0.0041
520.8,0.0044
521,0.0046
521.2,0.0043
521.4,0.0047
521.6,0.0051
521.8,0.0055
522,0.0055
522.2,0.0045
522.4,0.0051
522.6,0.0044
522.8,0.0051
523,0.0051
523.2,0.0044
523.4,0.0054
523.6,0.0047
523.8,0.0051
524,0.0053
524.2,0.0046
524.4,0.0043
524.6,0.005
524.8,0.005
525,0.0049
525.2,0.0047
525.4,0.0046
525.6,0.0056
525.8,0.0049
526,0.0047
526.2,0.0045
526.4,0.0043
526.6,0.0048
526.8,0.0052
527,0.0049
527.2,0.0051
527.4,0.0044
527.6,0.005
527.8,0.0048
528,0.0047
528.2,0.0045
528.4,0.0046
528.6,0.0048
528.8,0.0049
529,0.0048
529.2,0.0048
529.4,0.0051
529.6,0.0048
529.8,0.0051
530,0.0045
530.2,0.0052
530.4,0.0045
530.6,0.0048
530.8,0.0052
531,0.0048
531.2,0.0049
531.4,0.0053
531.6,0.0044
531.8,0.0046
532,0.0045
532.2,0.0051
532.4,0.0048
532.6,0.005
532.8,0.0045
533,0.0042
533.2,0.0041
533.4,0.0045
533.6,0.0047
533.8,0.0047
534,0.0048
534.2,0.0043
534.4,0.0047
534.6,0.0046
534.8,0.0049
535,0.0046
535.2,0.0044
535.4,0.0053
535.6,0.0049
535.8,0.0044
536,0.0048
536.2,0.0042
536.4,0.0044
536.6,0.0048
536.8,0.0041
537,0.0049
537.2,0.0047
537.4,0.0048
537.6,0.0052
537.8,0.0044
538,0.0047
538.2,0.0046
538.4,0.0044
538.6,0.0045
538.8,0.0046
539,0.0046
539.2,0.004
539.4,0.0042
539.6,0.005
539.8,0.0044
540,0.0048
540.2,0.0045
540.4,0.0044
540.6,0.0047
540.8,0.0045
541,0.004
541.2,0.0041
541.4,0.0044
541.6,0.0051
541.8,0.0046
542,0.0043
542.2,0.0048
542.4,0.0048
542.6,0.005
542.8,0.0043
543,0.0051
543.2,0.0045
543.4,0.0049
543.6,0.0049
543.8,0.0046
544,0.0052
544.2,0.0051
544.4,0.0044
544.6,0.0043
544.8,0.0042
545,0.005
545.2,0.0048
545.4,0.005
545.6,0.0045
545.8,0.0046
546,0.0048
546.2,0.0051
546.4,0.0047
546.6,0.0042
546.8,0.0045
547,0.0051
547.2,0.0047
547.4,0.0046
547.6,0.0039
547.8,0.0044
548,0.0046
548.2,0.0048
548.4,0.0049
548.6,0.0049
548.8,0.0039
549,0.0052
549.2,0.0043
549.4,0.0044
549.6,0.0048
549.8,0.0042
550,0.0046
550.2,0.0034
550.4,0.004
550.6,0.0044
550.8,0.0041
551,0.0036
551.2,0.0037
551.4,0.005
551.6,0.004
551.8,0.0035
552,0.0032
552.2,0.0042
552.4,0.0046
552.6,0.0042
552.8,0.0039
553,0.0037
553.2,0.0042
553.4,0.0045
553.6,0.0045
553.8,0.0041
554,0.0042
554.2,0.005
554.4,0.0031
554.6,0.0042
554.8,0.0044
555,0.0044
555.2,0.0045
555.4,0.0043
555.6,0.0044
555.8,0.0039
556,0.0044
556.2,0.0036
556.4,0.0036
556.6,0.0045
556.8,0.0043
557,0.0035
557.2,0.0041
557.4,0.0039
557.6,0.0032
557.8,0.0037
558,0.0041
558.2,0.0046
558.4,0.004
558.6,0.0033
558.8,0.0042
559,0.0044
559.2,0.0044
559.4,0.0047
559.6,0.0037
559.8,0.0044
560,0.0044
560.2,0.0038
560.4,0.005
560.6,0.0029
560.8,0.0043
561,0.0043
561.2,0.0036
561.4,0.0037
561.6,0.0046
561.8,0.0042
562,0.0032
562.2,0.005
562.4,0.0045
562.6,0.005
562.8,0.0036
563,0.0034
563.2,0.0041
563.4,0.0042
563.6,0.0048
563.8,0.0038
564,0.0046
564.2,0.0037
564.4,0.0044
564.6,0.0039
564.8,0.0032
565,0.0037
565.2,0.0034
565.4,0.0034
565.6,0.0041
565.8,0.0035
566,0.0037
566.2,0.004
566.4,0.0032
566.6,0.0046
566.8,0.0043
567,0.0039
567.2,0.0044
567.4,0.005
567.6,0.0051
567.8,0.0036
568,0.0036
568.2,0.0037
568.4,0.0045
568.6,0.0027
568.8,0.0033
569,0.0037
569.2,0.0047
569.4,0.0028
569.6,0.004
569.8,0.0042
570,0.0046
570.2,0.0036
570.4,0.0037
570.6,0.0045
570.8,0.0038
571,0.0038
571.2,0.0041
571.4,0.0038
571.6,0.0039
571.8,0.0037
572,0.0045
572.2,0.0046
572.4,0.0021
572.6,0.0037
572.8,0.0041
573,0.0041
573.2,0.004
573.4,0.0038
573.6,0.0033
573.8,0.0046
574,0.0043
574.2,0.0044
574.4,0.0044
574.6,0.0035
574.8,0.0036
575,0.0039
575.2,0.0036
575.4,0.0046
575.6,0.0043
575.8,0.0043
576,0.0038
576.2,0.0037
576.4,0.0033
576.6,0.0043
576.8,0.0034
577,0.0028
577.2,0.0028
577.4,0.0024
577.6,0.0029
577.8,0.0039
578,0.004
578.2,0.0021
578.4,0.0035
578.6,0.0025
578.8,0.0036
579,0.0033
579.2,0.0038
579.4,0.0047
579.6,0.0036
579.8,0.0042
580,0.005
580.2,0.0021
580.4,0.0027
580.6,0.0045
580.8,0.0021
581,0.0045
581.2,0.0044
581.4,0.0027
581.6,0.0025
581.8,0.0035
582,0.0028
582.2,0.0028
582.4,0.0032
582.6,0.0036
582.8,0.0045
583,0.0026
583.2,0.0032
583.4,0.0013
583.6,0.0035
583.8,0.0039
584,0.0039
584.2,0.0025
584.4,0.0036
584.6,0.0049
584.8,0.0025
585,0.0033
585.2,0.0054
585.4,0.0039
585.6,0.0035
585.8,0.0049
586,0.0038
586.2,0.0043
586.4,0.004
586.6,0.0043
586.8,0.0022
587,0.0036
587.2,0.0023
587.4,0.0048
587.6,0.003
587.8,0.0035
588,0.0007
588.2,0.0055
588.4,0.0033
588.6,0.0014
588.8,0.0024
589,0.0048
589.2,0.0053
589.4,0.0018
589.6,0.0046
589.8,0.0024
590,0.0042
590.2,0.0045
590.4,0.0036
590.6,0.0044
590.8,0.004
591,0.0036
591.2,0.0037
591.4,0.0055
591.6,0.0038
591.8,0.0038
592,0.0037
592.2,0.0037
592.4,0.0031
592.6,0.0033
592.8,0.0031
593,0.0038
593.2,0.0034
593.4,0.0038
593.6,0.004
593.8,0.004
594,0.0035
594.2,0.0042
594.4,0.0048
594.6,0.0032
594.8,0.0036
595,0.0046
595.2,0.0031
595.4,0.0037
595.6,0.0028
595.8,0.0034
596,0.0039
596.2,0.0038
596.4,0.0037
596.6,0.0037
596.8,0.004
597,0.0035
597.2,0.0036
597.4,0.0036
597.6,0.0043
597.8,0.0042
598,0.0037
598.2,0.004
598.4,0.0033
598.6,0.0043
598.8,0.0028
599,0.003
599.2,0.003
599.4,0.0027
599.6,0.0026
599.8,0.0034
600,0.0029
600.2,0.0042
600.4,0.0041
600.6,0.0042
600.8,0.0034
601,0.004
601.2,0.0034
601.4,0.0038
601.6,0.0038
601.8,0.0036
602,0.0039
602.2,0.0034
602.4,0.0042
602.6,0.0032
602.8,0.0034
603,0.0041
603.2,0.0038
603.4,0.0038
603.6,0.0041
603.8,0.0026
604,0.0035
604.2,0.0036
604.4,0.0029
604.6,0.003
604.8,0.0032
605,0.0036
605.2,0.0037
605.4,0.0047
605.6,0.0043
605.8,0.0034
606,0.0036
606.2,0.0036
606.4,0.0036
606.6,0.0034
606.8,0.0035
607,0.0038
607.2,0.0029
607.4,0.0037
607.6,0.0033
607.8,0.004
608,0.0041
608.2,0.0035
608.4,0.0039
608.6,0.0033
608.8,0.004
609,0.0036
609.2,0.0032
609.4,0.0033
609.6,0.0037
609.8,0.004
610,0.0032
610.2,0.0033
610.4,0.0038
610.6,0.0042
610.8,0.0044
611,0.0038
611.2,0.0037
611.4,0.0027
611.6,0.0042
611.8,0.0038
612,0.0036
612.2,0.0034
612.4,0.0032
612.6,0.003
612.8,0.0034
613,0.0031
613.2,0.0042
613.4,0.0041
613.6,0.0035
613.8,0.0028
614,0.0042
614.2,0.003
614.4,0.0034
614.6,0.0029
614.8,0.0025
615,0.0026
615.2,0.0033
615.4,0.0041
615.6,0.0046
615.8,0.0031
616,0.0022
616.2,0.004
616.4,0.0024
616.6,0.0025
616.8,0.0029
617,0.0041
617.2,0.0028
617.4,0.0033
617.6,0.0027
617.8,0.0028
618,0.0039
618.2,0.0034
618.4,0.0024
618.6,0.0043
618.8,0.0032
619,0.0037
619.2,0.0033
619.4,0.0032
619.6,0.0027
619.8,0.0033
620,0.0029
620.2,0.0034
620.4,0.0041
620.6,0.0025
620.8,0.0041
621,0.004
621.2,0.0032
621.4,0.0047
621.6,0.0035
621.8,0.0031
622,0.0034
622.2,0.0035
622.4,0.0033
622.6,0.0037
622.8,0.0034
623,0.0011
623.2,0.0026
623.4,0.0034
623.6,0.0045
623.8,0.0046
624,0.0034
624.2,0.0047
624.4,0.0048
624.6,0.003
624.8,0.004
625,0.0027
625.2,0.0034
625.4,0.0041
625.6,0.0043
625.8,0.0041
626,0.0035
626.2,0.0028
626.4,0.0035
626.6,0.0036
626.8,0.003
627,0.0036
627.2,0.0042
627.4,0.003
627.6,0.0036
627.8,0.0041
628,0.0039
628.2,0.0039
628.4,0.0034
628.6,0.0037
628.8,0.0041
629,0.0034
629.2,0.0051
629.4,0.0037
629.6,0.003
629.8,0.0035
630,0.0033
630.2,0.0036
630.4,0.0035
630.6,0.0021
630.8,0.0034
631,0.0033
631.2,0.004
631.4,0.0025
631.6,0.0039
631.8,0.0032
632,0.003
632.2,0.0026
632.4,0.0024
632.6,0.0039
632.8,0.0031
633,0.0033
633.2,0.0022
633.4,0.003
633.6,0.0035
633.8,0.0023
634,0.0038
634.2,0.0028
634.4,0.0014
634.6,0.0024
634.8,0.0022
635,0.0023
635.2,0.0035
635.4,0.003
635.6,0.0024
635.8,0.0029
636,0.0038
636.2,0.0032
636.4,0.0046
636.6,0.0012
636.8,0.0027
637,0.0012
637.2,0.0022
637.4,0.0042
637.6,0.0028
637.8,0.0032
638,0.0024
638.2,0.0019
638.4,0.0027
638.6,0.0026
638.8,0.0043
639,0.004
639.2,0.0042
639.4,0.0022
639.6,0.003
639.8,0.0013
640,0.0019
640.2,0.004
640.4,0.0024
640.6,0.0028
640.8,0.0033
641,0.0024
641.2,0.0024
641.4,0.004
641.6,0.0036
641.8,0.0031
642,0.0027
642.2,0.0033
642.4,0.0032
642.6,0.0023
642.8,0.0027
643,0.0031
643.2,0.0031
643.4,0.0031
643.6,0.0013
643.8,0.0038
644,0.0022
644.2,0.0017
644.4,0.0025
644.6,0.0019
644.8,0.0018
645,0.0027
645.2,0.0037
645.4,0.0022
645.6,0.0028
645.8,0.0031
646,0.0024
646.2,0.0026
646.4,0.0045
646.6,0.0037
646.8,0.0017
647,0.0025
647.2,0.0031
647.4,0.0027
647.6,0.0033
647.8,0.004
648,0.0021
648.2,0.0026
648.4,0.0012
648.6,0.0022
648.8,0.0015
649,0.0039
649.2,0.0038
649.4,0.0027
649.6,0.0032
649.8,0.0037
650,0.0031
650.2,0.0019
650.4,0.0025
650.6,0.0032
650.8,0.0041
651,0.0021
651.2,0.0009
651.4,0.0016
651.6,0.0014
651.8,0.0026
652,0.0024
652.2,0.0017
652.4,0.0022
652.6,0.0044
652.8,0.0034
653,0.0027
653.2,0.0016
653.4,0.0024
653.6,0.0022
653.8,0.0022
654,0.0015
654.2,0.0011
654.4,0.0027
654.6,0.0019
654.8,0.003
655,0.003
655.2,0.0034
655.4,0.0031
655.6,0.0035
655.8,0.0023
656,0.0021
656.2,0.0027
656.4,0.0026
656.6,0.0025
656.8,0.0043
657,0.0028
657.2,0.0027
657.4,0.0031
657.6,0.0027
657.8,0.0027
658,0.0025
658.2,0.0027
658.4,0.0016
658.6,0.0029
658.8,0.0029
659,0.0034
659.2,0.0024
659.4,0.0019
659.6,0.0024
659.8,0.0035
660,0.0018
660.2,0.0035
660.4,0.0016
660.6,0.0022
660.8,0.0016
661,0.0017
661.2,0.0029
661.4,0.0028
661.6,0.0044
661.8,0.002
662,0.0024
662.2,0.0034
662.4,0.0021
662.6,0.0023
662.8,0.0015
663,0.0022
663.2,0.0027
663.4,0.0022
663.6,0.0022
663.8,0.0022
664,0.0008
664.2,0.0008
664.4,0.0024
664.6,0.003
664.8,0.0016
665,0.0034
665.2,0.0028
665.4,0.0012
665.6,0.002
665.8,0.0013
666,0.0012
666.2,0.002
666.4,0.0033
666.6,0.0028
666.8,0.002
667,0.0009
667.2,0.0015
667.4,0.0018
667.6,0.0017
667.8,0.0008
668,0.001
668.2,0.0008
668.4,0.0006
668.6,0.0049
668.8,0.0025
669,0.0016
669.2,0.0014
669.4,0.0021
669.6,0.0018
669.8,0.0026
670,0.0021
670.2,0.0004
670.4,0.0019
670.6,0.0011
670.8,0.0033
671,0.0016
671.2,0.0034
671.4,0.0026
671.6,0.0024
671.8,0.0001
672,0.0002
672.2,0.0019
672.4,0.0036
672.6,0.0003
672.8,0.001
673,0.0015
673.2,0.0026
673.4,0.0015
673.6,0.0014
673.8,0.0024
674,0.0031
674.2,0.0025
674.4,0.0024
674.6,-0.0001
674.8,0.0024
675,0.0045
675.2,0.0038
675.4,0.0022
675.6,0.0027
675.8,0.0015
676,0.0005
676.2,0.0021
676.4,0.0006
676.6,0.0018
676.8,0.0009
677,0.0029
677.2,0.0032
677.4,0.001
677.6,0.0014
677.8,0.0011
678,0.0007
678.2,0.0003
678.4,0.0013
678.6,-0.0009
678.8,0.0009
679,0.0016
679.2,0.0022
679.4,0.0013
679.6,0.0015
679.8,0.0015
680,0.0015
680.2,0.0008
680.4,0.0018
680.6,0.0034
680.8,0.0018
681,0.0018
681.2,0.0032
681.4,0.0029
681.6,0.0017
681.8,0.0015
682,0.0014
682.2,0.0028
682.4,0.0033
682.6,0.0012
682.8,0.0016
683,0.0008
683.2,0.0017
683.4,0.0034
683.6,0.0019
683.8,0.0028
684,0.0028
684.2,0.0005
684.4,-0.0002
684.6,0.0014
684.8,0.0019
685,0.0033
685.2,0.0028
685.4,0.0004
685.6,0.0022
685.8,0.002
686,0.0023
686.2,0.0042
686.4,0.0016
686.6,0.0025
686.8,0.0028
687,0.0032
687.2,0.0015
687.4,0.0012
687.6,0.0015
687.8,0.0021
688,0.0037
688.2,0.0026
688.4,0.0019
688.6,0.0051
688.8,0.0022
689,0.0003
689.2,0.0014
689.4,0.0003
689.6,0.002
689.8,0.0016
690,0.001
690.2,0.0002
690.4,0.0021
690.6,0.0027
690.8,0.0017
691,0.001
691.2,0.0017
691.4,0.002
691.6,0.0016
691.8,0.0022
692,0.0032
692.2,0.0018
692.4,-0.0002
692.6,0.0015
692.8,0.0018
693,0.0035
693.2,0.0011
693.4,0.0002
693.6,0.0007
693.8,0.0015
694,0.0005
694.2,0.0022
694.4,0.0011
694.6,0.0016
694.8,-0.0002
695,0.0015
695.2,0.0013
695.4,0.0028
695.6,0.0028
695.8,0.0036
696,0.0026
696.2,0.0029
696.4,0.0028
696.6,0.0037
696.8,0.0007
697,0.0026
697.2,0.0018
697.4,0.0022
697.6,0.0025
697.8,0.0023
698,0.0022
698.2,0.0017
698.4,0.0012
698.6,0.0019
698.8,0.0022
699,0.0026
699.2,0.0019
699.4,0.0017
699.6,0.0026
699.8,0.002
700,0.0029
700.2,0.0022
700.4,0.0015
700.6,0.0026
700.8,0.002
701,0.0021
701.2,0.002
701.4,0.0019
701.6,0.0029
701.8,0.0018
702,0.0026
702.2,0.0025
702.4,0.0021
702.6,0.0026
702.8,0.0018
703,0.0034
703.2,0.0022
703.4,0.0017
703.6,0.003
703.8,0.0019
704,0.0023
704.2,0.0037
704.4,0.0025
704.6,0.0018
704.8,0.0016
705,0.0023
705.2,0.002
705.4,0.0003
705.6,0.0019
705.8,0.0022
706,0.0023
706.2,0.0024
706.4,0.0022
706.6,0.0016
706.8,0.0025
707,0.002
707.2,0.0027
707.4,0.0011
707.6,0.0025
707.8,0.0005
708,0.0033
708.2,0.0016
708.4,0.0012
708.6,0.0011
708.8,0.0022
709,0.0016
709.2,0.0017
709.4,0.0029
709.6,0.0024
709.8,0.0028
710,0.0033
710.2,0.0021
710.4,0.0027
710.6,0.001
710.8,0.0022
711,0.0015
711.2,0.003
711.4,0.0022
711.6,0.0037
711.8,0.0025
712,0.0015
712.2,0.0028
712.4,0.0018
712.6,0.0018
712.8,0.0027
713,0.0012
713.2,0.0025
713.4,0.0016
713.6,0.0016
713.8,0.0024
714,0.0033
714.2,0.003
714.4,0.0024
714.6,0.0025
714.8,0.0024
715,0.0031
715.2,0.0014
715.4,0.0025
715.6,0.0025
715.8,0.0022
716,0.0027
716.2,0.0019
716.4,0.0032
716.6,0.0027
716.8,0.002
717,0.0033
717.2,0.0023
717.4,0.0026
717.6,0.0025
717.8,0.0025
718,0.0024
718.2,0.0024
718.4,0.0014
718.6,0.0031
718.8,0.003
719,0.0039
719.2,0.0018
719.4,0.0036
719.6,0.0029
719.8,0.0026
720,0.0034
720.2,0.0016
720.4,0.0028
720.6,0.0027
720.8,0.0024
721,0.0026
721.2,0.0022
721.4,0.0015
721.6,0.0045
721.8,0.0024
722,0.0018
722.2,0.0018
722.4,0.0018
722.6,0.0029
722.8,0.0018
723,0.0041
723.2,0.002
723.4,0.0025
723.6,0.0031
723.8,0.0014
724,0.0018
724.2,0.0024
724.4,0.0024
724.6,0.0013
724.8,0.0037
725,0.0032
725.2,0.0018
725.4,0.0022
725.6,0.0025
725.8,0.0036
726,0.0016
726.2,0.0026
726.4,0.0031
726.6,0.0025
726.8,0.0026
727,0.002
727.2,0.0021
727.4,0.0015
727.6,0.0019
727.8,0.0028
728,0.0018
728.2,0.0022
728.4,0.0029
728.6,0.0031
728.8,0.001
729,0.0015
729.2,0.0024
729.4,0.0005
729.6,0.0017
729.8,0.0006
730,0.0026
730.2,0.0013
730.4,0.0026
730.6,0.0015
730.8,0.0023
731,0.0024
731.2,0.0022
731.4,0.0002
731.6,0.0038
731.8,0.0024
732,0.0012
732.2,0.0027
732.4,0.0031
732.6,0.0014
732.8,0.0017
733,0.0026
733.2,0.0019
733.4,0.0027
733.6,0.0025
733.8,0.0036
734,0.0016
734.2,0.0036
734.4,0.0021
734.6,0.002
734.8,0.0021
735,0.0033
735.2,0.0021
735.4,0.0001
735.6,0.0027
735.8,0.0025
736,0.0036
736.2,0.0007
736.4,0.0012
736.6,0.0016
736.8,0.0019
737,0.0028
737.2,0.0015
737.4,0.0028
737.6,0.0016
737.8,0.003
738,0.0032
738.2,0.0032
738.4,0.0011
738.6,0.0013
738.8,0.0027
739,0.0017
739.2,0.0022
739.4,0.0014
739.6,0.0024
739.8,0.0023
740,0.0024
740.2,0.0031
740.4,0.0029
740.6,0.004
740.8,0.003
741,0.0013
741.2,0.0035
741.4,0.0035
741.6,0.002
741.8,0.0021
742,0.001
742.2,0.0026
742.4,0.0026
742.6,0.0024
742.8,0.0023
743,0.0011
743.2,0.0009
743.4,0.0009
743.6,0.0017
743.8,0.004
744,0.0021
744.2,0.0026
744.4,0.0014
744.6,0.0014
744.8,0.0021
745,0.0023
745.2,0.0027
745.4,0.0035
745.6,0.0008
745.8,0.0029
746,0.0026
746.2,0.0042
746.4,0.0001
746.6,0.0017
746.8,0.0023
747,0.0017
747.2,0.0026
747.4,0.004
747.6,0.0007
747.8,0.0028
748,0.0011
748.2,0.001
748.4,-0.0008
748.6,0.0038
748.8,0.0003
749,0.0025
749.2,0.0026
749.4,0.0039
749.6,0.0012
749.8,0.0019
750,0.0018
750.2,0.0007
750.4,0.0026
750.6,0.0024
750.8,0.0034
751,0.0013
751.2,0.0016
751.4,0.0017
751.6,0.0026
751.8,0.0018
752,0.0044
752.2,0.0042
752.4,0.0017
752.6,0.0004
752.8,0.0037
753,0.0004
753.2,0.0019
753.4,0.0025
753.6,0.0001
753.8,0.0017
754,0.0038
754.2,0.0023
754.4,0.0006
754.6,0.0027
754.8,0.0016
755,0.0012
755.2,0.0025
755.4,0.0029
755.6,0.0034
755.8,0.0001
756,0.002
756.2,0.0001
756.4,0.0025
756.6,0.0009
756.8,-0.0002
757,0.0032
757.2,0.0025
757.4,-0.0012
757.6,0.002
757.8,0
758,0.0014
758.2,0.0026
758.4,0.0016
758.6,0.0001
758.8,0.0019
759,0.0024
759.2,0.0016
759.4,0.0026
759.6,-0.0001
759.8,-0.001
760,0
760.2,0.0006
760.4,0.0011
760.6,0.0022
760.8,0.0017
761,0.0033
761.2,0.0019
761.4,0.0029
761.6,0.0014
761.8,0.0016
762,0.0021
762.2,0.0013
762.4,0.0027
762.6,0.0007
762.8,0.0026
763,0.0004
763.2,0.0013
763.4,0.0019
763.6,0.0015
763.8,0.0018
764,0.0024
764.2,0.0023
764.4,0.0031
764.6,0.0019
764.8,0.0012
765,0.0015
765.2,0.0037
765.4,0.001
765.6,0.0038
765.8,0.0004
766,0.002
766.2,0.0038
766.4,0.0004
766.6,0.0026
766.8,0.0015
767,0.0006
767.2,0.0022
767.4,-0.0021
767.6,0.0005
767.8,0.0039
768,0.0019
768.2,0.0006
768.4,0.0012
768.6,0.001
768.8,0.0009
769,0.0045
769.2,-0.0001
769.4,0.002
769.6,-0.0032
769.8,0.0031
770,0.0011
770.2,-0.0011
770.4,-0.0003
770.6,0.0004
770.8,0.0022
771,0.005
771.2,0.0005
771.4,0.0033
771.6,0.0001
771.8,0.0018
772,0.0011
772.2,0.0017
772.4,0.0028
772.6,0.0006
772.8,-0.0018
773,0.0034
773.2,0.0021
773.4,0.0022
773.6,-0.0006
773.8,-0.0004
774,-0.0011
774.2,-0.0004
774.4,0.0022
774.6,0.001
774.8,0.0008
775,-0.0011
775.2,0.0027
775.4,0.0005
775.6,0.0005
775.8,0.0018
776,0.0004
776.2,0.0026
776.4,0.0002
776.6,0.001
776.8,0.0003
777,0.0011
777.2,-0.0008
777.4,0.0006
777.6,0.0004
777.8,0.0004
778,0.0033
778.2,0.0003
778.4,0.0009
778.6,0.0009
778.8,0.0024
779,-0.0011
779.2,0.0017
779.4,0.0019
779.6,-0.0002
779.8,0.0012
780,0.0022
780.2,0.0021
780.4,-0.0005
780.6,0.0034
780.8,0.0006
781,0.0038
781.2,-0.0018
781.4,0.0045
781.6,0.0017
781.8,-0.0005
782,0.0021
782.2,0.0031
782.4,0.0006
782.6,0.0021
782.8,0.0012
783,0.0027
783.2,0.0036
783.4,-0.0002
783.6,0.001
783.8,0.0011
784,0
784.2,0.0012
784.4,0.001
784.6,0.001
784.8,0.0006
785,0.0019
785.2,0.0002
785.4,0.0006
785.6,0.0015
785.8,0.0003
786,0.0011
786.2,0.0035
786.4,0.0014
786.6,-0.0009
786.8,0.0003
787,0.0012
787.2,0.0011
787.4,0.003
787.6,-0.0007
787.8,0.0008
788,0.0029
788.2,0.0025
788.4,0.0012
788.6,0.0019
788.8,-0.0007
789,0.0017
789.2,0.0006
789.4,0.0003
789.6,-0.0008
789.8,0.0019
790,0.002
790.2,0.0042
790.4,0.0002
790.6,-0.0002
790.8,-0.0012
791,0.0041
791.2,0.0024
791.4,0.0021
791.6,0.0007
791.8,0.0057
792,-0.0007
792.2,-0.002
792.4,0.0007
792.6,0.0001
792.8,-0.0013
793,-0.0013
793.2,0.002
793.4,0.0004
793.6,-0.0013
793.8,0.0018
794,0.0018
794.2,0.0033
794.4,-0.0013
794.6,0.0038
794.8,0.0012
795,0.001
795.2,0.0012
795.4,0.0023
795.6,0.0039
795.8,0.0034
796,0.003
796.2,-0.0002
796.4,-0.0008
796.6,0.0016
796.8,0
797,0.0022
797.2,0.003
797.4,0.0012
797.6,-0.0003
797.8,-0.0017
798,0.0013
798.2,0.0018
798.4,0.0021
798.6,0.0044
798.8,-0.0003
799,0.0046
799.2,0.001
799.4,0.0008
799.6,0.0012
799.8,-0.0017
800,0.002