Batch,scan004
EV300,140607
Data Mode,A  None
Sample,"PC_22:6,MeOH"
Cycle,Cycle01
Date Collected,8/10/16
Time Collected,8:48:36PM
Entries,Data Points
nm,A
190,0.4805
190.2,0.3302
190.4,0.4627
190.6,0.5298
190.8,0.3463
191,0.369
191.2,0.4183
191.4,0.4307
191.6,0.5636
191.8,0.3877
192,0.5296
192.2,0.4431
192.4,0.3435
192.6,0.415
192.8,0.4534
193,0.4371
193.2,0.3379
193.4,0.4503
193.6,0.4849
193.8,0.3812
194,0.4765
194.2,0.435
194.4,0.4295
194.6,0.4779
194.8,0.4832
195,0.4004
195.2,0.4176
195.4,0.4183
195.6,0.4079
195.8,0.5109
196,0.3914
196.2,0.4437
196.4,0.3999
196.6,0.4346
196.8,0.358
197,0.3959
197.2,0.4087
197.4,0.3757
197.6,0.3727
197.8,0.3296
198,0.4017
198.2,0.4105
198.4,0.3973
198.6,0.4056
198.8,0.389
199,0.3862
199.2,0.3543
199.4,0.421
199.6,0.3813
199.8,0.3745
200,0.4093
200.2,0.4287
200.4,0.4381
200.6,0.3844
200.8,0.391
201,0.3779
201.2,0.3653
201.4,0.4168
201.6,0.4039
201.8,0.3521
202,0.369
202.2,0.4094
202.4,0.3845
202.6,0.4042
202.8,0.3843
203,0.4098
203.2,0.4048
203.4,0.4146
203.6,0.4324
203.8,0.4095
204,0.3865
204.2,0.3693
204.4,0.3579
204.6,0.3789
204.8,0.4265
205,0.4061
205.2,0.3795
205.4,0.3774
205.6,0.3358
205.8,0.3903
206,0.3692
206.2,0.3806
206.4,0.422
206.6,0.4152
206.8,0.4065
207,0.3838
207.2,0.3985
207.4,0.3842
207.6,0.3975
207.8,0.4227
208,0.3906
208.2,0.3629
208.4,0.411
208.6,0.4
208.8,0.4304
209,0.4255
209.2,0.3903
209.4,0.4108
209.6,0.3883
209.8,0.4002
210,0.4021
210.2,0.4339
210.4,0.4187
210.6,0.4164
210.8,0.396
211,0.3916
211.2,0.4163
211.4,0.4141
211.6,0.4173
211.8,0.4325
212,0.4303
212.2,0.4398
212.4,0.4327
212.6,0.4449
212.8,0.4398
213,0.4622
213.2,0.4106
213.4,0.4696
213.6,0.4387
213.8,0.4738
214,0.5016
214.2,0.4704
214.4,0.492
214.6,0.4894
214.8,0.5331
215,0.5068
215.2,0.5528
215.4,0.5371
215.6,0.5641
215.8,0.5567
216,0.5806
216.2,0.6182
216.4,0.6077
216.6,0.6092
216.8,0.6311
217,0.6534
217.2,0.663
217.4,0.6817
217.6,0.6907
217.8,0.7054
218,0.7374
218.2,0.7577
218.4,0.774
218.6,0.8034
218.8,0.8196
219,0.8374
219.2,0.8557
219.4,0.8916
219.6,0.8928
219.8,0.9192
220,0.9348
220.2,0.9679
220.4,0.995
220.6,1.0098
220.8,1.0335
221,1.0531
221.2,1.0773
221.4,1.0935
221.6,1.1154
221.8,1.1364
222,1.1587
222.2,1.1862
222.4,1.2099
222.6,1.2249
222.8,1.2444
223,1.0823
223.2,1.0906
223.4,1.1072
223.6,1.1372
223.8,1.1616
224,1.1892
224.2,1.2044
224.4,1.2396
224.6,1.2516
224.8,1.2685
225,1.2833
225.2,1.3157
225.4,1.3296
225.6,1.3475
225.8,1.3683
226,1.3924
226.2,1.4043
226.4,1.4309
226.6,1.4489
226.8,1.4672
227,1.4912
227.2,1.5069
227.4,1.514
227.6,1.5357
227.8,1.553
228,1.5713
228.2,1.5892
228.4,1.6064
228.6,1.6234
228.8,1.6435
229,1.6645
229.2,1.686
229.4,1.7026
229.6,1.7201
229.8,1.735
230,1.7463
230.2,1.7599
230.4,1.7723
230.6,1.7899
230.8,1.806
231,1.8296
231.2,1.8506
231.4,1.8657
231.6,1.8811
231.8,1.8982
232,1.9145
232.2,1.9147
232.4,1.937
232.6,1.9415
232.8,1.959
233,1.9765
233.2,1.9956
233.4,1.9981
233.6,2.0146
233.8,2.0267
234,2.0485
234.2,2.0552
234.4,2.0735
234.6,2.0858
234.8,2.093
235,2.1053
235.2,2.1105
235.4,2.1233
235.6,2.1379
235.8,2.145
236,2.1574
236.2,2.176
236.4,2.1886
236.6,2.2015
236.8,2.2138
237,2.2231
237.2,2.224
237.4,2.2278
237.6,2.2392
237.8,2.2505
238,2.2629
238.2,2.2794
238.4,2.284
238.6,2.2977
238.8,2.2953
239,2.3036
239.2,2.3101
239.4,2.3191
239.6,2.3399
239.8,2.3389
240,2.355
240.2,2.3573
240.4,2.3579
240.6,2.3614
240.8,2.3734
241,2.3855
241.2,2.3904
241.4,2.3919
241.6,2.4029
241.8,2.4089
242,2.4122
242.2,2.4219
242.4,2.4328
242.6,2.4419
242.8,2.4538
243,2.4578
243.2,2.4682
243.4,2.4662
243.6,2.4686
243.8,2.4806
244,2.4719
244.2,2.4819
244.4,2.4856
244.6,2.4937
244.8,2.5021
245,2.51
245.2,2.5072
245.4,2.5113
245.6,2.5172
245.8,2.5182
246,2.522
246.2,2.5258
246.4,2.5208
246.6,2.529
246.8,2.5335
247,2.5484
247.2,2.5574
247.4,2.5652
247.6,2.5714
247.8,2.5738
248,2.5729
248.2,2.5746
248.4,2.575
248.6,2.5816
248.8,2.5856
249,2.5943
249.2,2.6008
249.4,2.5993
249.6,2.6019
249.8,2.602
250,2.5971
250.2,2.6087
250.4,2.6164
250.6,2.6225
250.8,2.6118
251,2.618
251.2,2.6167
251.4,2.6283
251.6,2.6278
251.8,2.6234
252,2.6306
252.2,2.6342
252.4,2.6397
252.6,2.6465
252.8,2.6487
253,2.6496
253.2,2.6364
253.4,2.6401
253.6,2.64
253.8,2.6415
254,2.6444
254.2,2.6293
254.4,2.6436
254.6,2.6427
254.8,2.6601
255,2.6463
255.2,2.6495
255.4,2.6526
255.6,2.6345
255.8,2.6439
256,2.6461
256.2,2.6444
256.4,2.6293
256.6,2.6358
256.8,2.6492
257,2.6286
257.2,2.6427
257.4,2.6322
257.6,2.6355
257.8,2.6505
258,2.645
258.2,2.6389
258.4,2.6379
258.6,2.6315
258.8,2.6315
259,2.6408
259.2,2.6226
259.4,2.6325
259.6,2.626
259.8,2.6264
260,2.6287
260.2,2.6359
260.4,2.6432
260.6,2.6524
260.8,2.6453
261,2.6441
261.2,2.6373
261.4,2.637
261.6,2.6326
261.8,2.6353
262,2.6413
262.2,2.6392
262.4,2.6419
262.6,2.636
262.8,2.6333
263,2.641
263.2,2.6332
263.4,2.6465
263.6,2.6411
263.8,2.6439
264,2.6366
264.2,2.6462
264.4,2.642
264.6,2.6368
264.8,2.6327
265,2.5999
265.2,2.5997
265.4,2.5985
265.6,2.5983
265.8,2.5993
266,2.599
266.2,2.5938
266.4,2.5944
266.6,2.5972
266.8,2.6034
267,2.6047
267.2,2.6022
267.4,2.5982
267.6,2.5949
267.8,2.5903
268,2.5932
268.2,2.5911
268.4,2.591
268.6,2.5957
268.8,2.5948
269,2.5961
269.2,2.593
269.4,2.5997
269.6,2.6006
269.8,2.6047
270,2.5984
270.2,2.6002
270.4,2.6034
270.6,2.6015
270.8,2.6055
271,2.6104
271.2,2.612
271.4,2.6233
271.6,2.6312
271.8,2.6395
272,2.6365
272.2,2.6363
272.4,2.631
272.6,2.6271
272.8,2.6277
273,2.6319
273.2,2.6348
273.4,2.6378
273.6,2.6398
273.8,2.6369
274,2.6405
274.2,2.6368
274.4,2.6367
274.6,2.6392
274.8,2.6329
275,2.6353
275.2,2.6311
275.4,2.6301
275.6,2.6296
275.8,2.6301
276,2.6322
276.2,2.6314
276.4,2.6275
276.6,2.6238
276.8,2.6213
277,2.6174
277.2,2.6154
277.4,2.6135
277.6,2.6101
277.8,2.6017
278,2.599
278.2,2.5878
278.4,2.5867
278.6,2.5809
278.8,2.573
279,2.5712
279.2,2.5639
279.4,2.5572
279.6,2.5478
279.8,2.5423
280,2.5389
280.2,2.5342
280.4,2.5309
280.6,2.5236
280.8,2.5167
281,2.5141
281.2,2.5082
281.4,2.5022
281.6,2.4996
281.8,2.4973
282,2.4916
282.2,2.4914
282.4,2.4862
282.6,2.485
282.8,2.4839
283,2.4798
283.2,2.4728
283.4,2.4652
283.6,2.4612
283.8,2.4574
284,2.455
284.2,2.4542
284.4,2.4492
284.6,2.4484
284.8,2.4473
285,2.4429
285.2,2.4392
285.4,2.4319
285.6,2.4258
285.8,2.4211
286,2.4164
286.2,2.4097
286.4,2.4019
286.6,2.3939
286.8,2.3843
287,2.3739
287.2,2.3646
287.4,2.3509
287.6,2.338
287.8,2.3191
288,2.2998
288.2,2.2773
288.4,2.258
288.6,2.2362
288.8,2.2132
289,2.1878
289.2,2.1622
289.4,2.1346
289.6,2.1074
289.8,2.0738
290,2.0409
290.2,2.0066
290.4,1.9742
290.6,1.9399
290.8,1.908
291,1.8748
291.2,1.8401
291.4,1.8022
291.6,1.7637
291.8,1.7253
292,1.6883
292.2,1.649
292.4,1.6121
292.6,1.5734
292.8,1.5338
293,1.4972
293.2,1.4568
293.4,1.4203
293.6,1.3859
293.8,1.3512
294,1.317
294.2,1.2848
294.4,1.2536
294.6,1.2236
294.8,1.1957
295,1.1692
295.2,1.1427
295.4,1.1175
295.6,1.0915
295.8,1.0657
296,1.0416
296.2,1.0176
296.4,0.9955
296.6,0.9747
296.8,0.9539
297,0.936
297.2,0.9184
297.4,0.9029
297.6,0.8881
297.8,0.8739
298,0.8602
298.2,0.8463
298.4,0.8337
298.6,0.8207
298.8,0.8085
299,0.7969
299.2,0.7854
299.4,0.7754
299.6,0.7654
299.8,0.7557
300,0.7464
300.2,0.7382
300.4,0.7299
300.6,0.7216
300.8,0.7138
301,0.7063
301.2,0.6988
301.4,0.6911
301.6,0.6844
301.8,0.677
302,0.6701
302.2,0.6638
302.4,0.6575
302.6,0.6512
302.8,0.6452
303,0.6389
303.2,0.6321
303.4,0.6246
303.6,0.618
303.8,0.6115
304,0.6049
304.2,0.598
304.4,0.5917
304.6,0.5844
304.8,0.5786
305,0.5719
305.2,0.5649
305.4,0.5584
305.6,0.5515
305.8,0.5441
306,0.5382
306.2,0.5306
306.4,0.5243
306.6,0.5179
306.8,0.5125
307,0.5057
307.2,0.4991
307.4,0.492
307.6,0.4856
307.8,0.4788
308,0.4731
308.2,0.4667
308.4,0.4618
308.6,0.4561
308.8,0.4509
309,0.4459
309.2,0.4412
309.4,0.4361
309.6,0.4318
309.8,0.427
310,0.4225
310.2,0.4182
310.4,0.4145
310.6,0.4105
310.8,0.4074
311,0.4042
311.2,0.4012
311.4,0.3986
311.6,0.3961
311.8,0.3933
312,0.391
312.2,0.3897
312.4,0.3881
312.6,0.3868
312.8,0.3855
313,0.384
313.2,0.383
313.4,0.3822
313.6,0.3811
313.8,0.3805
314,0.3798
314.2,0.3785
314.4,0.3783
314.6,0.3784
314.8,0.3776
315,0.3775
315.2,0.3771
315.4,0.3769
315.6,0.377
315.8,0.376
316,0.3754
316.2,0.3744
316.4,0.3737
316.6,0.3731
316.8,0.3724
317,0.3706
317.2,0.3696
317.4,0.3688
317.6,0.3671
317.8,0.3667
318,0.3639
318.2,0.3622
318.4,0.3601
318.6,0.3581
318.8,0.3557
319,0.3529
319.2,0.3505
319.4,0.3479
319.6,0.3455
319.8,0.3423
320,0.3398
320.2,0.3362
320.4,0.3328
320.6,0.3291
320.8,0.3256
321,0.3221
321.2,0.3176
321.4,0.3142
321.6,0.3106
321.8,0.3065
322,0.3027
322.2,0.2979
322.4,0.294
322.6,0.2897
322.8,0.2856
323,0.2816
323.2,0.2773
323.4,0.2733
323.6,0.2689
323.8,0.2649
324,0.2619
324.2,0.2576
324.4,0.2544
324.6,0.2507
324.8,0.2475
325,0.243
325.2,0.2396
325.4,0.2348
325.6,0.2318
325.8,0.2271
326,0.2247
326.2,0.2207
326.4,0.2174
326.6,0.2146
326.8,0.2113
327,0.2086
327.2,0.2058
327.4,0.2025
327.6,0.1996
327.8,0.1964
328,0.1944
328.2,0.1909
328.4,0.1878
328.6,0.185
328.8,0.1831
329,0.18
329.2,0.178
329.4,0.1757
329.6,0.173
329.8,0.1712
330,0.1687
330.2,0.1666
330.4,0.1642
330.6,0.1618
330.8,0.1599
331,0.1579
331.2,0.1557
331.4,0.1543
331.6,0.1525
331.8,0.1514
332,0.1489
332.2,0.146
332.4,0.1448
332.6,0.1433
332.8,0.1412
333,0.14
333.2,0.1386
333.4,0.1364
333.6,0.1351
333.8,0.1338
334,0.1319
334.2,0.1306
334.4,0.1293
334.6,0.1272
334.8,0.1262
335,0.1248
335.2,0.1237
335.4,0.1223
335.6,0.1205
335.8,0.1192
336,0.1184
336.2,0.1164
336.4,0.1156
336.6,0.1142
336.8,0.1134
337,0.1119
337.2,0.1111
337.4,0.1098
337.6,0.1087
337.8,0.1069
338,0.1064
338.2,0.1049
338.4,0.1034
338.6,0.1033
338.8,0.1026
339,0.1017
339.2,0.1005
339.4,0.0989
339.6,0.0982
339.8,0.0977
340,0.0967
340.2,0.0956
340.4,0.0948
340.6,0.0943
340.8,0.0931
341,0.0921
341.2,0.0909
341.4,0.0906
341.6,0.0899
341.8,0.0895
342,0.0887
342.2,0.0876
342.4,0.087
342.6,0.0863
342.8,0.0856
343,0.085
343.2,0.0842
343.4,0.0826
343.6,0.0825
343.8,0.0816
344,0.081
344.2,0.08
344.4,0.0799
344.6,0.0788
344.8,0.079
345,0.0778
345.2,0.0781
345.4,0.0772
345.6,0.0771
345.8,0.076
346,0.0746
346.2,0.0747
346.4,0.0744
346.6,0.0732
346.8,0.0729
347,0.0719
347.2,0.0727
347.4,0.071
347.6,0.0712
347.8,0.0706
348,0.0702
348.2,0.0695
348.4,0.0683
348.6,0.0679
348.8,0.0676
349,0.066
349.2,0.0658
349.4,0.065
349.6,0.0652
349.8,0.0647
350,0.0638
350.2,0.0627
350.4,0.0628
350.6,0.0616
350.8,0.0617
351,0.0605
351.2,0.0605
351.4,0.0594
351.6,0.0592
351.8,0.0586
352,0.0583
352.2,0.0575
352.4,0.0575
352.6,0.0573
352.8,0.057
353,0.0555
353.2,0.0554
353.4,0.0543
353.6,0.0543
353.8,0.0539
354,0.053
354.2,0.0527
354.4,0.0518
354.6,0.0526
354.8,0.0519
355,0.0502
355.2,0.0503
355.4,0.0504
355.6,0.0498
355.8,0.05
356,0.0493
356.2,0.049
356.4,0.0487
356.6,0.0482
356.8,0.0479
357,0.0476
357.2,0.0466
357.4,0.0459
357.6,0.0455
357.8,0.0458
358,0.0452
358.2,0.045
358.4,0.0446
358.6,0.0448
358.8,0.0439
359,0.0437
359.2,0.0437
359.4,0.0436
359.6,0.0428
359.8,0.0426
360,0.0415
360.2,0.0422
360.4,0.0408
360.6,0.0409
360.8,0.0403
361,0.0406
361.2,0.0396
361.4,0.0396
361.6,0.0387
361.8,0.0387
362,0.0386
362.2,0.038
362.4,0.0385
362.6,0.0378
362.8,0.0373
363,0.0382
363.2,0.0366
363.4,0.0368
363.6,0.0364
363.8,0.0362
364,0.0362
364.2,0.0352
364.4,0.0352
364.6,0.0353
364.8,0.0348
365,0.0345
365.2,0.0338
365.4,0.034
365.6,0.0338
365.8,0.0338
366,0.0335
366.2,0.0325
366.4,0.0325
366.6,0.0323
366.8,0.0325
367,0.0317
367.2,0.0316
367.4,0.0311
367.6,0.031
367.8,0.0306
368,0.0302
368.2,0.0305
368.4,0.03
368.6,0.0295
368.8,0.0291
369,0.0293
369.2,0.0286
369.4,0.0283
369.6,0.0283
369.8,0.0282
370,0.0282
370.2,0.0277
370.4,0.0281
370.6,0.0274
370.8,0.0268
371,0.0273
371.2,0.027
371.4,0.0266
371.6,0.0265
371.8,0.0261
372,0.0271
372.2,0.0253
372.4,0.0248
372.6,0.0244
372.8,0.0249
373,0.0249
373.2,0.0243
373.4,0.0246
373.6,0.0242
373.8,0.0243
374,0.0242
374.2,0.0238
374.4,0.0229
374.6,0.023
374.8,0.023
375,0.0235
375.2,0.0233
375.4,0.0223
375.6,0.0218
375.8,0.0228
376,0.0216
376.2,0.0222
376.4,0.0215
376.6,0.0215
376.8,0.0217
377,0.0211
377.2,0.0209
377.4,0.0212
377.6,0.021
377.8,0.0206
378,0.0201
378.2,0.0203
378.4,0.0213
378.6,0.02
378.8,0.0199
379,0.0193
379.2,0.0197
379.4,0.0191
379.6,0.0199
379.8,0.0195
380,0.0197
380.2,0.0186
380.4,0.0183
380.6,0.0186
380.8,0.0193
381,0.0183
381.2,0.0181
381.4,0.0186
381.6,0.0181
381.8,0.0175
382,0.018
382.2,0.017
382.4,0.0174
382.6,0.0174
382.8,0.0172
383,0.0171
383.2,0.0171
383.4,0.0174
383.6,0.0162
383.8,0.0159
384,0.0159
384.2,0.0158
384.4,0.0162
384.6,0.0152
384.8,0.0155
385,0.0156
385.2,0.0155
385.4,0.0146
385.6,0.0145
385.8,0.0148
386,0.0149
386.2,0.0149
386.4,0.0145
386.6,0.0144
386.8,0.0138
387,0.0137
387.2,0.0142
387.4,0.0141
387.6,0.0142
387.8,0.0139
388,0.0136
388.2,0.0138
388.4,0.0133
388.6,0.013
388.8,0.0132
389,0.013
389.2,0.0125
389.4,0.0127
389.6,0.012
389.8,0.013
390,0.012
390.2,0.0123
390.4,0.0127
390.6,0.0123
390.8,0.0117
391,0.0118
391.2,0.0126
391.4,0.012
391.6,0.0121
391.8,0.0115
392,0.0122
392.2,0.0118
392.4,0.0109
392.6,0.0116
392.8,0.0113
393,0.0115
393.2,0.0114
393.4,0.0113
393.6,0.0108
393.8,0.0109
394,0.0111
394.2,0.0103
394.4,0.0106
394.6,0.0104
394.8,0.0105
395,0.0107
395.2,0.0107
395.4,0.0111
395.6,0.0108
395.8,0.0102
396,0.011
396.2,0.011
396.4,0.0105
396.6,0.0107
396.8,0.0106
397,0.0104
397.2,0.0099
397.4,0.01
397.6,0.0109
397.8,0.0105
398,0.0106
398.2,0.0101
398.4,0.0094
398.6,0.0094
398.8,0.0093
399,0.0097
399.2,0.0105
399.4,0.0093
399.6,0.0093
399.8,0.0095
400,0.0097
400.2,0.0099
400.4,0.0098
400.6,0.0095
400.8,0.0096
401,0.0091
401.2,0.0095
401.4,0.0092
401.6,0.0097
401.8,0.0096
402,0.0093
402.2,0.0095
402.4,0.0088
402.6,0.0087
402.8,0.0088
403,0.0091
403.2,0.0085
403.4,0.0092
403.6,0.0086
403.8,0.0081
404,0.0084
404.2,0.0088
404.4,0.0084
404.6,0.0083
404.8,0.0089
405,0.0082
405.2,0.0083
405.4,0.0091
405.6,0.0084
405.8,0.0081
406,0.0083
406.2,0.0079
406.4,0.008
406.6,0.0079
406.8,0.0077
407,0.0079
407.2,0.0082
407.4,0.0077
407.6,0.0079
407.8,0.0078
408,0.0076
408.2,0.0079
408.4,0.0078
408.6,0.0073
408.8,0.0073
409,0.0074
409.2,0.0076
409.4,0.0073
409.6,0.0075
409.8,0.0068
410,0.0074
410.2,0.0074
410.4,0.0077
410.6,0.0072
410.8,0.0077
411,0.0072
411.2,0.0075
411.4,0.0067
411.6,0.0077
411.8,0.0069
412,0.0067
412.2,0.007
412.4,0.0069
412.6,0.0065
412.8,0.0068
413,0.007
413.2,0.0067
413.4,0.0069
413.6,0.0074
413.8,0.0067
414,0.007
414.2,0.007
414.4,0.0067
414.6,0.0069
414.8,0.0074
415,0.0068
415.2,0.0071
415.4,0.0066
415.6,0.0062
415.8,0.0062
416,0.007
416.2,0.0061
416.4,0.006
416.6,0.0063
416.8,0.0065
417,0.0068
417.2,0.0064
417.4,0.0063
417.6,0.0065
417.8,0.0064
418,0.0062
418.2,0.0064
418.4,0.0065
418.6,0.0064
418.8,0.0064
419,0.0063
419.2,0.0063
419.4,0.0064
419.6,0.0064
419.8,0.0059
420,0.0059
420.2,0.0058
420.4,0.0061
420.6,0.006
420.8,0.0063
421,0.006
421.2,0.0059
421.4,0.006
421.6,0.0061
421.8,0.006
422,0.0061
422.2,0.0062
422.4,0.0062
422.6,0.0059
422.8,0.0058
423,0.0062
423.2,0.0059
423.4,0.0057
423.6,0.0053
423.8,0.006
424,0.0061
424.2,0.006
424.4,0.0055
424.6,0.0054
424.8,0.0057
425,0.0057
425.2,0.0057
425.4,0.0055
425.6,0.0056
425.8,0.0054
426,0.0057
426.2,0.0056
426.4,0.006
426.6,0.0055
426.8,0.0055
427,0.0053
427.2,0.0051
427.4,0.0055
427.6,0.0055
427.8,0.0055
428,0.0053
428.2,0.0052
428.4,0.0055
428.6,0.0055
428.8,0.0047
429,0.0066
429.2,0.0052
429.4,0.0043
429.6,0.0046
429.8,0.0055
430,0.0048
430.2,0.0052
430.4,0.0053
430.6,0.005
430.8,0.0049
431,0.0052
431.2,0.0051
431.4,0.0047
431.6,0.0053
431.8,0.0049
432,0.005
432.2,0.0048
432.4,0.0047
432.6,0.005
432.8,0.0051
433,0.0046
433.2,0.0056
433.4,0.0048
433.6,0.0044
433.8,0.0049
434,0.0046
434.2,0.0048
434.4,0.0051
434.6,0.0046
434.8,0.0042
435,0.0043
435.2,0.0049
435.4,0.0045
435.6,0.0044
435.8,0.0048
436,0.004
436.2,0.0042
436.4,0.0043
436.6,0.0034
436.8,0.0038
437,0.0046
437.2,0.0044
437.4,0.0041
437.6,0.0044
437.8,0.004
438,0.0039
438.2,0.0039
438.4,0.004
438.6,0.0041
438.8,0.0043
439,0.0039
439.2,0.0037
439.4,0.0041
439.6,0.0039
439.8,0.0036
440,0.0039
440.2,0.0038
440.4,0.004
440.6,0.0035
440.8,0.0041
441,0.004
441.2,0.0038
441.4,0.0035
441.6,0.0038
441.8,0.0037
442,0.0034
442.2,0.0038
442.4,0.0034
442.6,0.0041
442.8,0.0036
443,0.0032
443.2,0.0041
443.4,0.0039
443.6,0.0036
443.8,0.0032
444,0.0033
444.2,0.0035
444.4,0.0039
444.6,0.0039
444.8,0.0034
445,0.0033
445.2,0.0035
445.4,0.0036
445.6,0.0034
445.8,0.0034
446,0.0029
446.2,0.0032
446.4,0.0033
446.6,0.0035
446.8,0.0035
447,0.0036
447.2,0.0033
447.4,0.0037
447.6,0.0036
447.8,0.003
448,0.0032
448.2,0.0028
448.4,0.0027
448.6,0.0033
448.8,0.0027
449,0.0039
449.2,0.003
449.4,0.0034
449.6,0.0034
449.8,0.0028
450,0.0032
450.2,0.0032
450.4,0.0032
450.6,0.0029
450.8,0.0036
451,0.0041
451.2,0.0034
451.4,0.0032
451.6,0.0028
451.8,0.003
452,0.0025
452.2,0.0028
452.4,0.0029
452.6,0.0025
452.8,0.0032
453,0.0028
453.2,0.0023
453.4,0.0027
453.6,0.0029
453.8,0.0026
454,0.0022
454.2,0.0023
454.4,0.0021
454.6,0.002
454.8,0.0014
455,0.0022
455.2,0.0026
455.4,0.0023
455.6,0.0022
455.8,0.0018
456,0.002
456.2,0.0023
456.4,0.0021
456.6,0.0016
456.8,0.0021
457,0.0024
457.2,0.0024
457.4,0.0025
457.6,0.0018
457.8,0.0014
458,0.0024
458.2,0.0024
458.4,0.002
458.6,0.0016
458.8,0.0017
459,0.0017
459.2,0.0014
459.4,0.0017
459.6,0.0016
459.8,0.0017
460,0.0018
460.2,0.002
460.4,0.0018
460.6,0.002
460.8,0.0019
461,0.002
461.2,0.0018
461.4,0.0021
461.6,0.0016
461.8,0.0018
462,0.0023
462.2,0.0009
462.4,0.0019
462.6,0.0018
462.8,0.0014
463,0.0006
463.2,0.002
463.4,0.0017
463.6,0.002
463.8,0.002
464,0.0022
464.2,0.0018
464.4,0.0018
464.6,0.0013
464.8,0.0015
465,0.0015
465.2,0.0021
465.4,0.0015
465.6,0.0017
465.8,0.0014
466,0.0016
466.2,0.0008
466.4,0.0012
466.6,0.0019
466.8,0.0019
467,0.0017
467.2,0.0017
467.4,0.0018
467.6,0.0019
467.8,0.0011
468,0.0013
468.2,0.0018
468.4,0.0019
468.6,0.0017
468.8,0.0014
469,0.0017
469.2,0.0016
469.4,0.001
469.6,0.001
469.8,0.0018
470,0.0011
470.2,0.0017
470.4,0.002
470.6,0.0015
470.8,0.0013
471,0.0014
471.2,0.0011
471.4,0.0014
471.6,0.0013
471.8,0.0013
472,0.0016
472.2,0.0013
472.4,0.0007
472.6,0.0014
472.8,0.0015
473,0.0015
473.2,0.0013
473.4,0.0011
473.6,0.0017
473.8,0.0013
474,0.0017
474.2,0.0008
474.4,0.0011
474.6,0.0005
474.8,0.0005
475,0.0015
475.2,0.0014
475.4,0.0009
475.6,0.0014
475.8,0.0012
476,0.0012
476.2,0.0008
476.4,0.0008
476.6,0.0012
476.8,0.0009
477,0.001
477.2,0.0013
477.4,0.0012
477.6,0.0016
477.8,0.0018
478,0.001
478.2,0.0014
478.4,0.0012
478.6,0.0008
478.8,0.0018
479,0.0015
479.2,0.0017
479.4,0.0011
479.6,0.0013
479.8,0.0011
480,0.0007
480.2,0.0012
480.4,0.0013
480.6,0.0014
480.8,0.0014
481,0.0014
481.2,0.0009
481.4,0.0012
481.6,0.0008
481.8,0.0012
482,0.001
482.2,0.001
482.4,0.0013
482.6,0.0004
482.8,0.0011
483,0.0011
483.2,0.0011
483.4,0.001
483.6,0.0009
483.8,0.0011
484,0.0011
484.2,0.0012
484.4,0.0012
484.6,0.0012
484.8,0.0013
485,0.0014
485.2,0.0012
485.4,0.0013
485.6,0.0008
485.8,0.0015
486,0.001
486.2,0.0007
486.4,0.0009
486.6,0.0009
486.8,0.0005
487,0.0009
487.2,0.0011
487.4,0.0009
487.6,0.0001
487.8,0.001
488,0.001
488.2,0.0009
488.4,0.0011
488.6,0.0008
488.8,0.0008
489,0.0008
489.2,0.0009
489.4,0.001
489.6,0.0008
489.8,0.0008
490,0.0009
490.2,0.0004
490.4,0.0002
490.6,0.0005
490.8,0.0006
491,0.0002
491.2,0.0002
491.4,0.0007
491.6,0.0003
491.8,0.0006
492,0.0009
492.2,0.0005
492.4,0.001
492.6,0.001
492.8,0
493,0.0004
493.2,0.0007
493.4,0.0004
493.6,0.0012
493.8,0.0006
494,0.0005
494.2,0.0005
494.4,0.0003
494.6,0.0003
494.8,-0.0003
495,0.0004
495.2,0.0004
495.4,0
495.6,0.0005
495.8,0.0003
496,-0.0002
496.2,0.0009
496.4,0.0006
496.6,0.0001
496.8,0.0004
497,0.0003
497.2,0.0004
497.4,0.0008
497.6,0.0005
497.8,0.0006
498,-0.0001
498.2,0.0008
498.4,0.0002
498.6,-0.0003
498.8,0.0006
499,0.0008
499.2,0.0006
499.4,0.0007
499.6,0.0003
499.8,0.0005
500,-0.0006
500.2,0.0004
500.4,0.0007
500.6,0.0009
500.8,0.0002
501,0.0007
501.2,0.0002
501.4,0.0005
501.6,0.0002
501.8,0.001
502,0.0006
502.2,0.0004
502.4,-0.0003
502.6,0.0001
502.8,0.0002
503,-0.0003
503.2,0
503.4,0.0005
503.6,0.0002
503.8,0.0005
504,0.0004
504.2,0.0007
504.4,-0.0001
504.6,-0.0005
504.8,0.0002
505,0.0006
505.2,0.0003
505.4,0.0003
505.6,-0.0006
505.8,0.0002
506,-0.0004
506.2,0.0001
506.4,0.0002
506.6,-0.0005
506.8,0
507,-0.0003
507.2,-0.0007
507.4,0.0003
507.6,-0.0004
507.8,-0.0005
508,0.0001
508.2,-0.0001
508.4,-0.0002
508.6,-0.0007
508.8,-0.0002
509,0.0004
509.2,0.0002
509.4,0.0006
509.6,0.0001
509.8,0.0001
510,-0.0006
510.2,0.0003
510.4,0.0009
510.6,-0.0002
510.8,-0.0005
511,-0.001
511.2,-0.0003
511.4,0.0001
511.6,0.0006
511.8,0
512,0.0001
512.2,0.0002
512.4,0.0007
512.6,0.0005
512.8,-0.0001
513,0.0002
513.2,-0.0005
513.4,-0.0005
513.6,-0.0003
513.8,-0.0004
514,-0.0005
514.2,-0.0006
514.4,0.0004
514.6,-0.0009
514.8,-0.0007
515,-0.0002
515.2,-0.0003
515.4,-0.0001
515.6,-0.0003
515.8,0.0004
516,-0.0001
516.2,-0.0005
516.4,-0.0007
516.6,-0.0004
516.8,-0.0002
517,0
517.2,0.0002
517.4,-0.0003
517.6,0.0003
517.8,-0.0006
518,-0.0003
518.2,0.0002
518.4,-0.0009
518.6,-0.0009
518.8,0.0002
519,-0.0009
519.2,-0.0004
519.4,-0.0013
519.6,-0.0003
519.8,0.0002
520,-0.0006
520.2,0.0001
520.4,-0.0009
520.6,-0.0005
520.8,0
521,-0.0004
521.2,-0.0007
521.4,-0.0007
521.6,0.0001
521.8,-0.0006
522,0
522.2,-0.0007
522.4,-0.0007
522.6,-0.0009
522.8,-0.0012
523,0
523.2,-0.0001
523.4,0.0001
523.6,-0.0004
523.8,-0.0003
524,-0.0002
524.2,-0.0004
524.4,-0.0005
524.6,-0.0001
524.8,0.0001
525,-0.0009
525.2,-0.0002
525.4,-0.001
525.6,-0.0003
525.8,-0.0001
526,0.0001
526.2,-0.0004
526.4,-0.0006
526.6,-0.0004
526.8,-0.0004
527,-0.0005
527.2,-0.0007
527.4,-0.0013
527.6,-0.0005
527.8,-0.0006
528,-0.0003
528.2,-0.0002
528.4,-0.0006
528.6,-0.0004
528.8,-0.0003
529,-0.0005
529.2,-0.0003
529.4,0
529.6,0.0001
529.8,-0.0002
530,-0.0001
530.2,-0.0002
530.4,-0.0002
530.6,0.0001
530.8,-0.0006
531,-0.0006
531.2,-0.0003
531.4,0.0002
531.6,-0.0002
531.8,-0.0005
532,-0.0007
532.2,-0.0003
532.4,-0.0003
532.6,-0.0004
532.8,-0.0005
533,-0.0005
533.2,-0.0007
533.4,-0.0008
533.6,0.0001
533.8,0.0001
534,-0.0002
534.2,-0.0005
534.4,-0.0005
534.6,-0.0007
534.8,0.0001
535,-0.0008
535.2,-0.0005
535.4,-0.0005
535.6,-0.0002
535.8,-0.0005
536,-0.0009
536.2,-0.0009
536.4,-0.0001
536.6,-0.0002
536.8,-0.0004
537,-0.0003
537.2,-0.0006
537.4,-0.0003
537.6,-0.0003
537.8,-0.001
538,-0.0007
538.2,-0.0002
538.4,-0.0007
538.6,-0.0009
538.8,-0.0008
539,-0.0001
539.2,-0.0015
539.4,-0.0015
539.6,-0.0009
539.8,-0.0005
540,-0.0004
540.2,-0.0002
540.4,-0.0012
540.6,-0.0013
540.8,-0.0008
541,-0.0015
541.2,-0.0009
541.4,-0.0006
541.6,-0.0005
541.8,-0.0009
542,-0.001
542.2,-0.0001
542.4,-0.0003
542.6,-0.0002
542.8,-0.0012
543,-0.0007
543.2,-0.0007
543.4,-0.0008
543.6,-0.0004
543.8,-0.0007
544,-0.0008
544.2,-0.0005
544.4,-0.001
544.6,-0.0012
544.8,-0.0006
545,0.0002
545.2,-0.0003
545.4,-0.0007
545.6,-0.0011
545.8,-0.001
546,-0.0004
546.2,-0.0007
546.4,-0.0009
546.6,-0.0011
546.8,-0.0004
547,-0.0002
547.2,-0.0006
547.4,-0.0009
547.6,-0.0006
547.8,-0.0009
548,-0.0001
548.2,-0.0007
548.4,0.0002
548.6,-0.0002
548.8,-0.0005
549,-0.0001
549.2,0
549.4,-0.001
549.6,-0.0004
549.8,-0.0008
550,-0.0007
550.2,-0.0015
550.4,-0.0003
550.6,-0.0008
550.8,-0.0008
551,-0.0005
551.2,-0.0011
551.4,-0.001
551.6,-0.0015
551.8,-0.0003
552,-0.0011
552.2,-0.0006
552.4,0
552.6,-0.0007
552.8,-0.001
553,-0.0012
553.2,-0.0006
553.4,-0.0009
553.6,0.0001
553.8,-0.0007
554,-0.0007
554.2,0
554.4,-0.0009
554.6,-0.0008
554.8,-0.0009
555,0.0008
555.2,-0.0001
555.4,-0.0005
555.6,-0.0001
555.8,-0.0011
556,-0.0005
556.2,-0.0005
556.4,-0.0014
556.6,-0.0003
556.8,-0.0004
557,-0.0012
557.2,-0.0002
557.4,-0.0008
557.6,-0.0013
557.8,-0.0007
558,0.0005
558.2,-0.0003
558.4,-0.0004
558.6,-0.0006
558.8,-0.0017
559,-0.0013
559.2,-0.0003
559.4,-0.0001
559.6,-0.0008
559.8,-0.0005
560,-0.0001
560.2,-0.0004
560.4,-0.001
560.6,-0.0008
560.8,-0.001
561,0.0003
561.2,-0.001
561.4,-0.0016
561.6,-0.0002
561.8,0.0001
562,-0.0013
562.2,0.0002
562.4,-0.0009
562.6,0.0005
562.8,-0.0007
563,-0.0017
563.2,-0.0008
563.4,-0.0002
563.6,-0.0006
563.8,-0.0008
564,-0.0002
564.2,0.0002
564.4,0
564.6,-0.0004
564.8,0.0002
565,-0.0008
565.2,-0.0014
565.4,-0.0005
565.6,-0.001
565.8,-0.0005
566,-0.0007
566.2,-0.0004
566.4,0.0004
566.6,-0.0001
566.8,-0.001
567,-0.0003
567.2,-0.0002
567.4,-0.0001
567.6,-0.0007
567.8,-0.0004
568,-0.0012
568.2,0
568.4,-0.0007
568.6,-0.0012
568.8,-0.0004
569,-0.0004
569.2,-0.0002
569.4,-0.0011
569.6,-0.0007
569.8,-0.0012
570,-0.0015
570.2,-0.0014
570.4,-0.0011
570.6,0
570.8,-0.001
571,-0.0004
571.2,-0.0008
571.4,-0.0007
571.6,-0.0003
571.8,-0.0015
572,-0.0012
572.2,0
572.4,-0.0016
572.6,-0.0007
572.8,-0.0006
573,-0.0008
573.2,0.0005
573.4,-0.0006
573.6,-0.0001
573.8,-0.0003
574,-0.0011
574.2,-0.0003
574.4,-0.0002
574.6,-0.001
574.8,-0.0007
575,-0.0005
575.2,-0.0003
575.4,-0.0003
575.6,0.0007
575.8,-0.0007
576,-0.0012
576.2,-0.0013
576.4,-0.0008
576.6,-0.0008
576.8,-0.0005
577,-0.0008
577.2,-0.0015
577.4,-0.0009
577.6,-0.001
577.8,-0.0001
578,-0.0002
578.2,-0.0016
578.4,-0.001
578.6,-0.0007
578.8,-0.0007
579,-0.002
579.2,-0.0004
579.4,-0.0012
579.6,-0.0012
579.8,-0.0012
580,-0.0001
580.2,0.0001
580.4,-0.001
580.6,-0.0013
580.8,-0.0016
581,0
581.2,-0.0013
581.4,-0.0016
581.6,-0.0011
581.8,-0.0014
582,-0.0028
582.2,-0.0031
582.4,-0.0017
582.6,-0.0004
582.8,-0.0004
583,-0.0012
583.2,-0.0025
583.4,-0.002
583.6,0.0004
583.8,-0.0002
584,-0.0002
584.2,-0.0015
584.4,-0.002
584.6,0.0003
584.8,-0.0009
585,-0.001
585.2,-0.0002
585.4,0.0007
585.6,-0.0009
585.8,-0.001
586,-0.0008
586.2,-0.0015
586.4,-0.0003
586.6,0.0001
586.8,-0.0016
587,-0.0017
587.2,-0.0022
587.4,-0.0013
587.6,-0.0016
587.8,0
588,-0.0029
588.2,-0.0012
588.4,-0.0008
588.6,0.0011
588.8,-0.0015
589,-0.0021
589.2,-0.0013
589.4,-0.0011
589.6,-0.0004
589.8,-0.0015
590,-0.0024
590.2,0.0004
590.4,-0.0005
590.6,-0.0008
590.8,-0.0018
591,-0.0008
591.2,-0.0012
591.4,0.0005
591.6,-0.0011
591.8,-0.0009
592,-0.0013
592.2,-0.0003
592.4,-0.0015
592.6,-0.0011
592.8,-0.0009
593,0
593.2,-0.0012
593.4,-0.0017
593.6,-0.001
593.8,-0.0004
594,-0.0007
594.2,-0.001
594.4,-0.0007
594.6,-0.0011
594.8,-0.0014
595,-0.0014
595.2,-0.0014
595.4,-0.0008
595.6,-0.0015
595.8,-0.001
596,-0.0009
596.2,-0.0014
596.4,-0.0012
596.6,-0.0005
596.8,-0.0008
597,-0.0004
597.2,-0.0009
597.4,-0.0013
597.6,-0.0009
597.8,-0.0009
598,-0.0014
598.2,-0.0008
598.4,-0.0003
598.6,-0.0008
598.8,-0.0005
599,-0.0013
599.2,-0.0007
599.4,-0.0023
599.6,-0.0023
599.8,-0.0008
600,-0.0016
600.2,-0.001
600.4,-0.001
600.6,0
600.8,-0.0003
601,-0.0003
601.2,-0.0016
601.4,-0.0013
601.6,-0.0001
601.8,-0.0016
602,-0.0006
602.2,-0.0009
602.4,-0.0006
602.6,-0.0016
602.8,-0.0011
603,-0.001
603.2,0.0001
603.4,-0.0006
603.6,-0.001
603.8,-0.0008
604,-0.0007
604.2,-0.0011
604.4,-0.0014
604.6,-0.0017
604.8,-0.0012
605,-0.0006
605.2,0.0001
605.4,-0.0007
605.6,-0.0011
605.8,-0.0009
606,-0.0007
606.2,-0.0012
606.4,-0.0015
606.6,-0.0004
606.8,0
607,-0.0003
607.2,-0.0005
607.4,-0.0009
607.6,-0.0018
607.8,-0.0011
608,-0.0012
608.2,-0.0014
608.4,-0.0005
608.6,-0.0016
608.8,-0.0013
609,-0.0003
609.2,-0.0019
609.4,-0.0015
609.6,-0.0009
609.8,-0.0012
610,-0.0001
610.2,-0.0006
610.4,-0.0002
610.6,0.0001
610.8,-0.0004
611,-0.001
611.2,-0.0001
611.4,-0.001
611.6,-0.0007
611.8,-0.0012
612,-0.0013
612.2,-0.0015
612.4,-0.001
612.6,-0.001
612.8,-0.0004
613,-0.001
613.2,-0.0004
613.4,-0.0003
613.6,-0.0017
613.8,-0.0011
614,-0.0017
614.2,-0.0006
614.4,-0.0015
614.6,-0.0017
614.8,-0.0011
615,-0.0013
615.2,-0.0029
615.4,-0.0003
615.6,-0.0011
615.8,-0.0015
616,-0.0023
616.2,-0.0014
616.4,-0.0017
616.6,-0.0011
616.8,-0.0018
617,-0.0004
617.2,-0.0017
617.4,-0.0005
617.6,-0.0015
617.8,-0.0008
618,-0.0014
618.2,-0.0016
618.4,-0.0019
618.6,-0.0014
618.8,-0.002
619,-0.0014
619.2,-0.0012
619.4,-0.0021
619.6,-0.0013
619.8,-0.0003
620,-0.0013
620.2,-0.0007
620.4,-0.0007
620.6,-0.0018
620.8,-0.0011
621,-0.0014
621.2,-0.0022
621.4,0.0009
621.6,-0.0008
621.8,-0.0026
622,-0.002
622.2,-0.0018
622.4,-0.0014
622.6,-0.0016
622.8,-0.0023
623,-0.0027
623.2,-0.0001
623.4,-0.001
623.6,-0.0011
623.8,-0.0009
624,-0.0012
624.2,-0.0001
624.4,-0.0011
624.6,-0.002
624.8,-0.0014
625,-0.002
625.2,-0.0016
625.4,-0.0014
625.6,-0.0018
625.8,-0.0005
626,-0.001
626.2,-0.0017
626.4,-0.0014
626.6,-0.0022
626.8,-0.0017
627,-0.0016
627.2,-0.0016
627.4,-0.0013
627.6,-0.0012
627.8,-0.0022
628,-0.0021
628.2,-0.0014
628.4,-0.0019
628.6,-0.0006
628.8,-0.0017
629,-0.0015
629.2,-0.0008
629.4,-0.0017
629.6,-0.0009
629.8,-0.0014
630,-0.0011
630.2,-0.0001
630.4,-0.0013
630.6,-0.0021
630.8,-0.0011
631,-0.0004
631.2,-0.0018
631.4,-0.0022
631.6,-0.0021
631.8,-0.0026
632,-0.002
632.2,-0.0015
632.4,-0.0018
632.6,-0.0003
632.8,-0.0017
633,-0.0008
633.2,-0.0004
633.4,-0.0007
633.6,-0.0002
633.8,-0.0012
634,-0.0006
634.2,-0.0021
634.4,-0.003
634.6,-0.0011
634.8,-0.0026
635,-0.0017
635.2,-0.0022
635.4,-0.0005
635.6,0
635.8,-0.0021
636,-0.0005
636.2,-0.0018
636.4,0.0007
636.6,-0.0011
636.8,-0.0017
637,-0.0037
637.2,-0.0016
637.4,-0.001
637.6,-0.0009
637.8,-0.0021
638,-0.0016
638.2,-0.0022
638.4,-0.0019
638.6,-0.0004
638.8,-0.0019
639,0.0014
639.2,-0.0002
639.4,-0.002
639.6,-0.0001
639.8,-0.0016
640,-0.0015
640.2,-0.0006
640.4,-0.0014
640.6,-0.0013
640.8,-0.0015
641,-0.0011
641.2,-0.0003
641.4,-0.0009
641.6,-0.0003
641.8,-0.0028
642,-0.0017
642.2,-0.0018
642.4,-0.0005
642.6,-0.0021
642.8,-0.0017
643,-0.0012
643.2,-0.0018
643.4,-0.0004
643.6,-0.0022
643.8,-0.0004
644,-0.0021
644.2,-0.0018
644.4,-0.0006
644.6,-0.0008
644.8,-0.0012
645,-0.0012
645.2,-0.0025
645.4,-0.0024
645.6,-0.0008
645.8,-0.001
646,-0.001
646.2,-0.0015
646.4,-0.0002
646.6,-0.0006
646.8,-0.002
647,-0.0019
647.2,-0.0019
647.4,-0.0018
647.6,-0.0013
647.8,-0.0019
648,-0.0024
648.2,-0.0004
648.4,-0.0035
648.6,-0.0008
648.8,-0.0024
649,-0.0008
649.2,0.0001
649.4,-0.0018
649.6,0.0002
649.8,0.0007
650,-0.002
650.2,-0.0003
650.4,-0.0016
650.6,-0.0019
650.8,0.0006
651,-0.002
651.2,-0.0028
651.4,-0.0012
651.6,-0.0009
651.8,-0.0007
652,-0.0013
652.2,-0.0024
652.4,-0.0013
652.6,-0.0013
652.8,-0.0007
653,-0.0021
653.2,-0.0009
653.4,-0.0018
653.6,-0.0026
653.8,-0.0013
654,-0.0011
654.2,-0.0026
654.4,-0.0018
654.6,-0.0008
654.8,-0.0006
655,-0.0018
655.2,-0.0014
655.4,-0.0014
655.6,-0.0004
655.8,-0.0015
656,-0.0024
656.2,-0.0009
656.4,-0.0023
656.6,-0.0032
656.8,0.0006
657,-0.0017
657.2,-0.0019
657.4,-0.0019
657.6,-0.0021
657.8,-0.0007
658,-0.003
658.2,-0.0012
658.4,-0.0019
658.6,-0.002
658.8,-0.0025
659,-0.0018
659.2,-0.0012
659.4,-0.0019
659.6,-0.0018
659.8,-0.0021
660,-0.0023
660.2,-0.0023
660.4,-0.0017
660.6,-0.0012
660.8,-0.0014
661,-0.0021
661.2,-0.0018
661.4,-0.0005
661.6,-0.001
661.8,0
662,-0.0006
662.2,-0.0028
662.4,-0.0015
662.6,-0.0015
662.8,-0.0014
663,-0.0014
663.2,-0.0012
663.4,-0.0017
663.6,-0.001
663.8,-0.0001
664,-0.0021
664.2,-0.0019
664.4,-0.0024
664.6,-0.0004
664.8,-0.0035
665,-0.0013
665.2,-0.0022
665.4,-0.0012
665.6,-0.0015
665.8,-0.0041
666,-0.0015
666.2,-0.0002
666.4,-0.0012
666.6,-0.0003
666.8,-0.003
667,-0.0012
667.2,-0.0027
667.4,-0.0022
667.6,-0.0021
667.8,-0.0033
668,-0.0034
668.2,-0.0039
668.4,-0.0032
668.6,-0.0023
668.8,-0.0012
669,-0.0015
669.2,-0.0034
669.4,-0.0025
669.6,-0.0016
669.8,-0.001
670,-0.0014
670.2,-0.003
670.4,-0.0028
670.6,-0.0031
670.8,-0.0002
671,-0.0016
671.2,-0.0007
671.4,-0.0019
671.6,-0.0018
671.8,-0.0025
672,-0.0029
672.2,-0.0009
672.4,-0.0025
672.6,-0.0036
672.8,-0.0031
673,-0.0028
673.2,-0.0006
673.4,-0.0029
673.6,-0.004
673.8,-0.002
674,-0.0011
674.2,-0.0019
674.4,-0.0016
674.6,-0.0031
674.8,-0.0029
675,-0.0012
675.2,0.0002
675.4,-0.0008
675.6,-0.0015
675.8,-0.0019
676,-0.0021
676.2,-0.0012
676.4,-0.003
676.6,-0.0012
676.8,-0.0025
677,-0.0023
677.2,-0.0017
677.4,-0.0032
677.6,-0.0039
677.8,-0.0029
678,-0.0024
678.2,-0.0019
678.4,-0.0018
678.6,-0.0042
678.8,-0.0021
679,-0.0017
679.2,-0.0017
679.4,-0.0031
679.6,-0.0026
679.8,-0.0005
680,-0.0028
680.2,-0.0031
680.4,-0.0016
680.6,-0.0014
680.8,-0.0023
681,-0.0025
681.2,-0.0006
681.4,-0.0017
681.6,-0.003
681.8,-0.002
682,-0.0039
682.2,-0.0011
682.4,-0.0014
682.6,-0.0025
682.8,-0.0006
683,-0.0032
683.2,-0.0038
683.4,-0.002
683.6,-0.0006
683.8,-0.002
684,-0.0019
684.2,-0.0033
684.4,-0.0027
684.6,-0.0014
684.8,-0.0023
685,-0.0024
685.2,-0.0031
685.4,-0.002
685.6,-0.0009
685.8,-0.0006
686,-0.0025
686.2,-0.0011
686.4,-0.002
686.6,0
686.8,-0.0008
687,-0.0016
687.2,-0.0024
687.4,-0.0026
687.6,-0.002
687.8,-0.0028
688,-0.0009
688.2,-0.0013
688.4,-0.0032
688.6,-0.0022
688.8,-0.0027
689,-0.0045
689.2,-0.0021
689.4,-0.0021
689.6,-0.001
689.8,-0.0017
690,-0.0028
690.2,-0.004
690.4,-0.0021
690.6,-0.0007
690.8,-0.0015
691,-0.0026
691.2,-0.0016
691.4,-0.0022
691.6,-0.0015
691.8,-0.0023
692,-0.0025
692.2,-0.0016
692.4,-0.0028
692.6,-0.0017
692.8,-0.0026
693,-0.0007
693.2,-0.0029
693.4,-0.0046
693.6,-0.003
693.8,-0.0014
694,-0.0019
694.2,-0.0007
694.4,-0.003
694.6,-0.0019
694.8,-0.0037
695,-0.0033
695.2,-0.0041
695.4,-0.0016
695.6,0.0002
695.8,-0.0002
696,-0.0018
696.2,-0.0023
696.4,-0.0015
696.6,-0.0004
696.8,-0.0024
697,-0.0016
697.2,-0.0014
697.4,-0.0018
697.6,-0.0023
697.8,-0.0017
698,-0.0006
698.2,-0.0019
698.4,-0.0024
698.6,-0.0016
698.8,-0.002
699,-0.0017
699.2,-0.0009
699.4,-0.0015
699.6,-0.0008
699.8,-0.0019
700,-0.0012
700.2,-0.0017
700.4,-0.003
700.6,-0.0014
700.8,-0.0015
701,-0.0012
701.2,-0.002
701.4,-0.0018
701.6,-0.0012
701.8,-0.0019
702,0.0005
702.2,-0.0024
702.4,-0.0011
702.6,-0.0011
702.8,-0.0011
703,-0.0027
703.2,-0.0021
703.4,-0.0028
703.6,-0.0013
703.8,-0.0021
704,-0.0005
704.2,-0.0007
704.4,-0.0006
704.6,-0.0021
704.8,-0.0029
705,-0.0007
705.2,-0.0012
705.4,-0.002
705.6,-0.0028
705.8,-0.0017
706,-0.001
706.2,-0.0033
706.4,-0.0017
706.6,-0.0017
706.8,-0.0001
707,-0.0022
707.2,-0.0019
707.4,-0.0024
707.6,-0.0015
707.8,-0.0021
708,-0.0009
708.2,-0.0032
708.4,-0.0015
708.6,-0.0019
708.8,-0.0023
709,-0.0017
709.2,-0.0034
709.4,-0.0007
709.6,-0.001
709.8,-0.002
710,-0.0012
710.2,-0.0013
710.4,-0.0013
710.6,-0.0024
710.8,-0.0005
711,0.0008
711.2,-0.0014
711.4,-0.0005
711.6,-0.0009
711.8,0.0001
712,-0.001
712.2,-0.0001
712.4,-0.0004
712.6,-0.0017
712.8,-0.0017
713,-0.0011
713.2,0
713.4,-0.0017
713.6,-0.0004
713.8,-0.0014
714,-0.0005
714.2,-0.0002
714.4,-0.0014
714.6,-0.0008
714.8,-0.0013
715,-0.0001
715.2,-0.0017
715.4,-0.0001
715.6,-0.001
715.8,-0.0019
716,-0.002
716.2,-0.0001
716.4,-0.0002
716.6,-0.0006
716.8,-0.0015
717,-0.0003
717.2,-0.001
717.4,-0.0008
717.6,-0.0009
717.8,-0.0011
718,-0.0007
718.2,-0.0011
718.4,-0.0017
718.6,-0.0012
718.8,-0.0007
719,-0.0011
719.2,-0.0022
719.4,-0.0001
719.6,-0.001
719.8,-0.0015
720,0.001
720.2,-0.001
720.4,0.0002
720.6,0
720.8,-0.0015
721,-0.0008
721.2,-0.0016
721.4,-0.0024
721.6,-0.0004
721.8,-0.0021
722,-0.0019
722.2,-0.0027
722.4,-0.0015
722.6,-0.0009
722.8,-0.0006
723,-0.0001
723.2,-0.0011
723.4,-0.0009
723.6,0
723.8,-0.0012
724,-0.0022
724.2,-0.0022
724.4,-0.0015
724.6,-0.0018
724.8,-0.0014
725,-0.0013
725.2,-0.002
725.4,-0.0007
725.6,-0.0009
725.8,0.0001
726,-0.0005
726.2,-0.001
726.4,0.0002
726.6,-0.0008
726.8,-0.0017
727,-0.0012
727.2,-0.0018
727.4,-0.0022
727.6,-0.0002
727.8,-0.0013
728,-0.0011
728.2,-0.0017
728.4,-0.0005
728.6,-0.0003
728.8,-0.0018
729,-0.0023
729.2,-0.0013
729.4,-0.0028
729.6,-0.0014
729.8,-0.0025
730,-0.0026
730.2,-0.003
730.4,-0.0019
730.6,-0.0023
730.8,-0.0013
731,-0.0009
731.2,-0.0003
731.4,-0.0024
731.6,-0.001
731.8,-0.0008
732,-0.001
732.2,-0.0003
732.4,-0.0008
732.6,-0.0014
732.8,-0.0016
733,-0.0001
733.2,-0.0029
733.4,-0.0008
733.6,-0.0016
733.8,-0.0009
734,-0.0017
734.2,-0.0005
734.4,0.0001
734.6,-0.0013
734.8,-0.0012
735,-0.0019
735.2,0.0006
735.4,-0.0025
735.6,-0.0013
735.8,-0.0016
736,-0.0003
736.2,-0.0017
736.4,-0.0026
736.6,-0.0008
736.8,-0.0017
737,-0.0001
737.2,-0.0022
737.4,-0.0008
737.6,-0.0016
737.8,-0.0006
738,-0.0011
738.2,-0.0014
738.4,-0.0015
738.6,-0.0009
738.8,-0.0015
739,0.0001
739.2,-0.0025
739.4,-0.001
739.6,0.0001
739.8,-0.0021
740,-0.0013
740.2,-0.0009
740.4,-0.0015
740.6,-0.0005
740.8,-0.0018
741,-0.0029
741.2,0.0004
741.4,-0.0002
741.6,-0.0011
741.8,-0.0012
742,-0.0028
742.2,-0.0017
742.4,-0.0025
742.6,-0.0006
742.8,-0.0022
743,-0.0017
743.2,0.0008
743.4,-0.002
743.6,-0.0026
743.8,-0.0005
744,-0.0036
744.2,-0.0019
744.4,-0.0033
744.6,-0.0017
744.8,-0.0013
745,-0.0003
745.2,-0.0012
745.4,-0.001
745.6,-0.0012
745.8,-0.0027
746,-0.0025
746.2,0.0016
746.4,-0.0024
746.6,-0.0027
746.8,-0.0035
747,-0.0022
747.2,-0.0017
747.4,0.0003
747.6,-0.0025
747.8,-0.0016
748,-0.0025
748.2,-0.0017
748.4,-0.0033
748.6,-0.0003
748.8,-0.0033
749,-0.0014
749.2,-0.0022
749.4,-0.0006
749.6,-0.0006
749.8,-0.0029
750,-0.0045
750.2,-0.0014
750.4,-0.0031
750.6,0
750.8,-0.0034
751,-0.0029
751.2,-0.003
751.4,-0.0011
751.6,-0.0036
751.8,-0.0005
752,-0.0015
752.2,-0.0019
752.4,-0.0018
752.6,-0.0043
752.8,-0.0026
753,-0.0031
753.2,-0.0015
753.4,-0.0015
753.6,-0.0024
753.8,-0.0011
754,0
754.2,0.0006
754.4,-0.0023
754.6,-0.0036
754.8,-0.0019
755,-0.0009
755.2,-0.0004
755.4,0
755.6,-0.0023
755.8,-0.0031
756,-0.003
756.2,-0.0021
756.4,-0.0024
756.6,0.0001
756.8,-0.002
757,-0.0013
757.2,-0.0006
757.4,-0.0045
757.6,-0.0026
757.8,-0.0029
758,-0.0027
758.2,-0.0015
758.4,-0.0012
758.6,-0.0019
758.8,-0.0015
759,-0.0016
759.2,-0.0012
759.4,-0.0022
759.6,-0.0036
759.8,-0.001
760,-0.0034
760.2,-0.0009
760.4,-0.0019
760.6,-0.0025
760.8,-0.0017
761,-0.0032
761.2,-0.004
761.4,-0.0013
761.6,-0.0018
761.8,-0.0022
762,-0.0011
762.2,-0.0038
762.4,-0.0019
762.6,-0.0027
762.8,-0.0006
763,-0.0021
763.2,-0.0008
763.4,-0.003
763.6,-0.0022
763.8,-0.0014
764,-0.0017
764.2,-0.0023
764.4,-0.0011
764.6,-0.0027
764.8,-0.0012
765,-0.0013
765.2,-0.0018
765.4,-0.0027
765.6,-0.0003
765.8,-0.004
766,-0.0013
766.2,-0.0016
766.4,-0.0027
766.6,-0.003
766.8,-0.0011
767,-0.0017
767.2,-0.0012
767.4,-0.0027
767.6,-0.003
767.8,-0.0006
768,-0.0013
768.2,-0.002
768.4,-0.0014
768.6,-0.0001
768.8,-0.0043
769,0.0005
769.2,-0.0042
769.4,-0.0019
769.6,-0.0043
769.8,0.0004
770,-0.0035
770.2,-0.0027
770.4,-0.0024
770.6,-0.0017
770.8,-0.0027
771,-0.0019
771.2,-0.0029
771.4,-0.0009
771.6,-0.0034
771.8,0.0001
772,-0.0032
772.2,-0.004
772.4,-0.0005
772.6,-0.0021
772.8,-0.0034
773,-0.0023
773.2,-0.0003
773.4,-0.0014
773.6,-0.0028
773.8,-0.0013
774,-0.0054
774.2,-0.0055
774.4,-0.0013
774.6,-0.0024
774.8,-0.0035
775,-0.0009
775.2,-0.0031
775.4,-0.0024
775.6,-0.0013
775.8,-0.0022
776,-0.0055
776.2,-0.0043
776.4,-0.0012
776.6,-0.0021
776.8,-0.0039
777,-0.0015
777.2,-0.0036
777.4,-0.0022
777.6,-0.0021
777.8,-0.0024
778,0.0001
778.2,-0.0042
778.4,-0.0034
778.6,-0.0014
778.8,-0.003
779,-0.0009
779.2,-0.0014
779.4,-0.0037
779.6,0.0008
779.8,-0.0014
780,-0.0014
780.2,-0.0025
780.4,-0.0037
780.6,-0.0019
780.8,-0.0019
781,-0.0036
781.2,-0.0041
781.4,-0.0027
781.6,-0.0016
781.8,-0.0034
782,-0.0008
782.2,0.0013
782.4,-0.0036
782.6,-0.0018
782.8,-0.0032
783,0.0006
783.2,-0.0022
783.4,-0.0034
783.6,-0.003
783.8,-0.0035
784,-0.0008
784.2,-0.0014
784.4,-0.0026
784.6,-0.0009
784.8,-0.0027
785,-0.001
785.2,-0.0042
785.4,-0.0036
785.6,-0.0029
785.8,-0.0026
786,-0.0011
786.2,-0.0019
786.4,-0.0033
786.6,-0.0021
786.8,0.0012
787,-0.0005
787.2,0.0007
787.4,-0.0007
787.6,-0.0016
787.8,-0.0024
788,-0.0026
788.2,-0.0029
788.4,-0.0029
788.6,-0.0007
788.8,-0.0011
789,-0.0028
789.2,-0.0014
789.4,-0.0006
789.6,-0.0035
789.8,-0.0021
790,-0.0007
790.2,-0.0027
790.4,-0.0023
790.6,-0.0017
790.8,-0.0051
791,-0.0011
791.2,0.0015
791.4,-0.0022
791.6,-0.0011
791.8,-0.0002
792,-0.0008
792.2,-0.0032
792.4,-0.0044
792.6,-0.0038
792.8,-0.002
793,-0.0027
793.2,-0.0016
793.4,-0.0019
793.6,-0.0035
793.8,0
794,-0.0021
794.2,-0.0022
794.4,-0.0048
794.6,0.0009
794.8,-0.0027
795,-0.0029
795.2,-0.0028
795.4,-0.0021
795.6,-0.0008
795.8,-0.0043
796,-0.0023
796.2,-0.0016
796.4,-0.0013
796.6,-0.0018
796.8,-0.0048
797,-0.0006
797.2,-0.0017
797.4,-0.0027
797.6,-0.003
797.8,-0.0049
798,-0.0026
798.2,-0.005
798.4,-0.0005
798.6,0
798.8,-0.0017
799,-0.003
799.2,-0.0022
799.4,-0.0035
799.6,-0.0013
799.8,-0.0029
800,-0.0038