Batch,scan004_Borosilicate_EPA_vial_%T_190_to_800.sre
EV300,140607
Data Mode,%T  None
Sample,Borosil_%T_190-800_after_ZB
Cycle,Cycle01
Date Collected,7/27/2016
Time Collected,2:49:00PM
Entries,Data Points
nm,%T
190.00,0.0101
190.20,0.0115
190.40,0.0139
190.60,0.0189
190.80,0.0187
191.00,0.0117
191.20,0.0197
191.40,0.0104
191.60,0.0101
191.80,0.0078
192.00,0.0085
192.20,0.0122
192.40,0.0108
192.60,0.0096
192.80,0.0094
193.00,0.0098
193.20,0.0092
193.40,0.0082
193.60,0.0073
193.80,0.0063
194.00,0.0070
194.20,0.0095
194.40,0.0073
194.60,0.0066
194.80,0.0094
195.00,0.0081
195.20,0.0075
195.40,0.0098
195.60,0.0086
195.80,0.0062
196.00,0.0101
196.20,0.0049
196.40,0.0053
196.60,0.0083
196.80,0.0073
197.00,0.0070
197.20,0.0075
197.40,0.0073
197.60,0.0047
197.80,0.0058
198.00,0.0050
198.20,0.0064
198.40,0.0038
198.60,0.0066
198.80,0.0076
199.00,0.0061
199.20,0.0055
199.40,0.0062
199.60,0.0063
199.80,0.0070
200.00,0.0080
200.20,0.0072
200.40,0.0059
200.60,0.0076
200.80,0.0053
201.00,0.0045
201.20,0.0086
201.40,0.0078
201.60,0.0079
201.80,0.0066
202.00,0.0075
202.20,0.0081
202.40,0.0060
202.60,0.0057
202.80,0.0059
203.00,0.0061
203.20,0.0070
203.40,0.0069
203.60,0.0071
203.80,0.0053
204.00,0.0066
204.20,0.0052
204.40,0.0053
204.60,0.0047
204.80,0.0057
205.00,0.0050
205.20,0.0067
205.40,0.0078
205.60,0.0048
205.80,0.0042
206.00,0.0067
206.20,0.0053
206.40,0.0057
206.60,0.0042
206.80,0.0068
207.00,0.0053
207.20,0.0053
207.40,0.0060
207.60,0.0044
207.80,0.0047
208.00,0.0066
208.20,0.0056
208.40,0.0054
208.60,0.0067
208.80,0.0068
209.00,0.0067
209.20,0.0041
209.40,0.0067
209.60,0.0059
209.80,0.0061
210.00,0.0046
210.20,0.0037
210.40,0.0047
210.60,0.0048
210.80,0.0061
211.00,0.0038
211.20,0.0070
211.40,0.0036
211.60,0.0044
211.80,0.0060
212.00,0.0060
212.20,0.0050
212.40,0.0053
212.60,0.0065
212.80,0.0067
213.00,0.0047
213.20,0.0062
213.40,0.0061
213.60,0.0061
213.80,0.0071
214.00,0.0035
214.20,0.0031
214.40,0.0036
214.60,0.0079
214.80,0.0062
215.00,0.0062
215.20,0.0083
215.40,0.0039
215.60,0.0054
215.80,0.0069
216.00,0.0052
216.20,0.0061
216.40,0.0069
216.60,0.0049
216.80,0.0058
217.00,0.0053
217.20,0.0052
217.40,0.0070
217.60,0.0065
217.80,0.0049
218.00,0.0056
218.20,0.0054
218.40,0.0045
218.60,0.0052
218.80,0.0049
219.00,0.0044
219.20,0.0045
219.40,0.0034
219.60,0.0052
219.80,0.0055
220.00,0.0051
220.20,0.0044
220.40,0.0030
220.60,0.0062
220.80,0.0039
221.00,0.0057
221.20,0.0065
221.40,0.0043
221.60,0.0043
221.80,0.0051
222.00,0.0041
222.20,0.0044
222.40,0.0031
222.60,0.0042
222.80,0.0041
223.00,0.0052
223.20,0.0048
223.40,0.0077
223.60,0.0048
223.80,0.0068
224.00,0.0049
224.20,0.0079
224.40,0.0050
224.60,0.0043
224.80,0.0030
225.00,0.0014
225.20,0.0028
225.40,0.0055
225.60,0.0063
225.80,0.0037
226.00,0.0004
226.20,0.0047
226.40,0.0025
226.60,0.0041
226.80,0.0018
227.00,0.0011
227.20,0.0019
227.40,0.0000
227.60,0.0030
227.80,0.0033
228.00,0.0009
228.20,0.0009
228.40,0.0001
228.60,0.0011
228.80,0.0003
229.00,0.0012
229.20,0.0003
229.40,0.0007
229.60,0.0010
229.80,0.0014
230.00,0.0013
230.20,0.0010
230.40,0.0008
230.60,0.0018
230.80,0.0013
231.00,0.0010
231.20,0.0023
231.40,0.0006
231.60,0.0014
231.80,0.0013
232.00,0.0018
232.20,0.0034
232.40,0.0042
232.60,0.0013
232.80,0.0025
233.00,0.0007
233.20,0.0060
233.40,0.0027
233.60,0.0045
233.80,0.0029
234.00,0.0040
234.20,0.0043
234.40,0.0050
234.60,0.0052
234.80,0.0058
235.00,0.0032
235.20,0.0048
235.40,0.0034
235.60,0.0031
235.80,0.0013
236.00,0.0040
236.20,0.0058
236.40,0.0048
236.60,0.0063
236.80,0.0070
237.00,0.0062
237.20,0.0064
237.40,0.0049
237.60,0.0064
237.80,0.0085
238.00,0.0094
238.20,0.0065
238.40,0.0081
238.60,0.0073
238.80,0.0088
239.00,0.0078
239.20,0.0092
239.40,0.0087
239.60,0.0087
239.80,0.0095
240.00,0.0100
240.20,0.0134
240.40,0.0117
240.60,0.0122
240.80,0.0132
241.00,0.0136
241.20,0.0157
241.40,0.0114
241.60,0.0136
241.80,0.0134
242.00,0.0145
242.20,0.0165
242.40,0.0158
242.60,0.0161
242.80,0.0183
243.00,0.0189
243.20,0.0203
243.40,0.0202
243.60,0.0208
243.80,0.0219
244.00,0.0230
244.20,0.0266
244.40,0.0269
244.60,0.0279
244.80,0.0296
245.00,0.0323
245.20,0.0332
245.40,0.0351
245.60,0.0348
245.80,0.0375
246.00,0.0415
246.20,0.0410
246.40,0.0427
246.60,0.0440
246.80,0.0463
247.00,0.0472
247.20,0.0494
247.40,0.0507
247.60,0.0524
247.80,0.0555
248.00,0.0568
248.20,0.0606
248.40,0.0630
248.60,0.0664
248.80,0.0701
249.00,0.0718
249.20,0.0760
249.40,0.0801
249.60,0.0832
249.80,0.0858
250.00,0.0920
250.20,0.0992
250.40,0.1056
250.60,0.1042
250.80,0.1141
251.00,0.1206
251.20,0.1232
251.40,0.1260
251.60,0.1355
251.80,0.1424
252.00,0.1457
252.20,0.1534
252.40,0.1599
252.60,0.1624
252.80,0.1718
253.00,0.1793
253.20,0.1875
253.40,0.1923
253.60,0.2040
253.80,0.2109
254.00,0.2182
254.20,0.2282
254.40,0.2459
254.60,0.2536
254.80,0.2609
255.00,0.2724
255.20,0.2896
255.40,0.3031
255.60,0.3125
255.80,0.3267
256.00,0.3393
256.20,0.3621
256.40,0.3729
256.60,0.3832
256.80,0.4035
257.00,0.4196
257.20,0.4385
257.40,0.4563
257.60,0.4747
257.80,0.4952
258.00,0.5114
258.20,0.5310
258.40,0.5530
258.60,0.5776
258.80,0.6090
259.00,0.6326
259.20,0.6610
259.40,0.6887
259.60,0.7162
259.80,0.7446
260.00,0.7749
260.20,0.8053
260.40,0.8310
260.60,0.8611
260.80,0.8895
261.00,0.9174
261.20,0.9560
261.40,0.9961
261.60,1.0320
261.80,1.0823
262.00,1.1294
262.20,1.1873
262.40,1.2326
262.60,1.2841
262.80,1.3391
263.00,1.3859
263.20,1.4389
263.40,1.5030
263.60,1.5554
263.80,1.6170
264.00,1.6802
264.20,1.7449
264.40,1.8044
264.60,1.8791
264.80,1.9629
265.00,2.0386
265.20,2.1263
265.40,2.2078
265.60,2.2874
265.80,2.3730
266.00,2.4680
266.20,2.5626
266.40,2.6661
266.60,2.7640
266.80,2.8576
267.00,2.9530
267.20,3.0477
267.40,3.1589
267.60,3.2603
267.80,3.3761
268.00,3.5071
268.20,3.6331
268.40,3.7644
268.60,3.9046
268.80,4.0355
269.00,4.1818
269.20,4.3102
269.40,4.4765
269.60,4.6159
269.80,4.7878
270.00,4.9454
270.20,5.1116
270.40,5.2782
270.60,5.4682
270.80,5.6497
271.00,5.8702
271.20,6.0894
271.40,6.3015
271.60,6.4871
271.80,6.6646
272.00,6.8409
272.20,6.9947
272.40,7.1936
272.60,7.4177
272.80,7.6690
273.00,7.9116
273.20,8.1466
273.40,8.3989
273.60,8.6318
273.80,8.8683
274.00,9.1297
274.20,9.3944
274.40,9.6559
274.60,9.9342
274.80,10.2153
275.00,10.4901
275.20,10.7982
275.40,11.1394
275.60,11.4296
275.80,11.7673
276.00,12.0698
276.20,12.3613
276.40,12.7200
276.60,13.0182
276.80,13.3557
277.00,13.7331
277.20,14.0533
277.40,14.4292
277.60,14.7727
277.80,15.1125
278.00,15.4712
278.20,15.8465
278.40,16.1954
278.60,16.5981
278.80,16.9853
279.00,17.4216
279.20,17.7987
279.40,18.2283
279.60,18.6450
279.80,19.0813
280.00,19.5321
280.20,19.9042
280.40,20.3266
280.60,20.7737
280.80,21.2185
281.00,21.6592
281.20,22.1581
281.40,22.5515
281.60,22.9967
281.80,23.4530
282.00,23.9120
282.20,24.3496
282.40,24.8893
282.60,25.3141
282.80,25.7553
283.00,26.1438
283.20,26.5778
283.40,27.0272
283.60,27.4741
283.80,27.9939
284.00,28.5584
284.20,29.0629
284.40,29.5003
284.60,30.0546
284.80,30.3009
285.00,30.8592
285.20,31.3729
285.40,31.7727
285.60,32.2493
285.80,32.7456
286.00,33.3079
286.20,33.8890
286.40,34.3633
286.60,34.7700
286.80,35.3883
287.00,35.7412
287.20,36.2600
287.40,36.7467
287.60,37.2428
287.80,37.8292
288.00,38.2798
288.20,38.8400
288.40,39.3459
288.60,39.8996
288.80,40.4442
289.00,40.8620
289.20,41.3972
289.40,41.7632
289.60,42.4965
289.80,42.8897
290.00,43.5146
290.20,44.0696
290.40,44.5915
290.60,45.1070
290.80,45.6221
291.00,46.0838
291.20,46.5424
291.40,46.8752
291.60,47.5269
291.80,47.9963
292.00,48.4359
292.20,48.9323
292.40,49.4421
292.60,49.9204
292.80,50.4733
293.00,50.8302
293.20,51.4219
293.40,51.8977
293.60,52.4857
293.80,52.8562
294.00,53.3304
294.20,53.9802
294.40,54.2839
294.60,54.7576
294.80,55.4017
295.00,55.8713
295.20,56.2198
295.40,56.4776
295.60,56.9926
295.80,57.4963
296.00,57.9036
296.20,57.9180
296.40,58.7371
296.60,59.1880
296.80,59.2800
297.00,60.1491
297.20,60.6231
297.40,60.8942
297.60,61.4331
297.80,61.7608
298.00,62.0225
298.20,62.6446
298.40,62.9821
298.60,63.1250
298.80,63.6199
299.00,63.9768
299.20,64.4709
299.40,64.8652
299.60,65.2147
299.80,65.7102
300.00,66.0282
300.20,66.2978
300.40,66.6040
300.60,67.1361
300.80,67.7218
301.00,67.9254
301.20,68.2567
301.40,68.7200
301.60,68.8818
301.80,69.2156
302.00,69.6102
302.20,69.9001
302.40,70.2733
302.60,70.8641
302.80,70.9271
303.00,71.4677
303.20,71.5685
303.40,71.3666
303.60,72.1810
303.80,72.6661
304.00,72.8900
304.20,73.3427
304.40,73.4213
304.60,73.9452
304.80,74.2049
305.00,74.3567
305.20,74.7445
305.40,75.2292
305.60,75.3491
305.80,75.7473
306.00,75.9667
306.20,75.9127
306.40,76.4621
306.60,76.9139
306.80,76.9935
307.00,77.1311
307.20,77.5111
307.40,77.8306
307.60,78.1057
307.80,78.1621
308.00,78.6694
308.20,79.1165
308.40,79.0686
308.60,79.2283
308.80,79.5291
309.00,79.9922
309.20,79.9563
309.40,80.2651
309.60,80.5939
309.80,80.7725
310.00,80.8555
310.20,81.2379
310.40,81.4119
310.60,81.5408
310.80,81.8474
311.00,82.0792
311.20,82.1147
311.40,82.3064
311.60,82.6210
311.80,82.6614
312.00,83.0823
312.20,83.1734
312.40,83.1928
312.60,83.5002
312.80,83.8290
313.00,83.7761
313.20,84.2602
313.40,84.3287
313.60,84.4574
313.80,84.9708
314.00,84.8896
314.20,85.2078
314.40,85.4225
314.60,85.3586
314.80,85.6285
315.00,85.7911
315.20,86.2392
315.40,86.1326
315.60,86.2821
315.80,86.3839
316.00,86.6652
316.20,86.7621
316.40,86.8065
316.60,86.9722
316.80,87.0847
317.00,87.1879
317.20,87.2428
317.40,87.7171
317.60,87.6097
317.80,87.5834
318.00,88.0303
318.20,88.0546
318.40,88.1551
318.60,87.7895
318.80,88.4851
319.00,88.5277
319.20,88.3742
319.40,88.9571
319.60,88.9362
319.80,89.1090
320.00,89.1745
320.20,89.3028
320.40,89.3054
320.60,89.5311
320.80,89.5957
321.00,89.7381
321.20,89.9184
321.40,89.9981
321.60,90.0042
321.80,89.9968
322.00,90.0855
322.20,90.4688
322.40,90.5033
322.60,90.4604
322.80,90.4273
323.00,90.6141
323.20,90.8420
323.40,90.8450
323.60,91.2716
323.80,91.2566
324.00,91.3741
324.20,91.4200
324.40,91.5079
324.60,91.5887
324.80,91.6409
325.00,91.7820
325.20,91.9187
325.40,91.9320
325.60,91.7839
325.80,91.6424
326.00,92.0597
326.20,92.0727
326.40,92.1625
326.60,92.0400
326.80,92.2628
327.00,92.1648
327.20,92.3614
327.40,92.3535
327.60,92.4879
327.80,92.6086
328.00,92.7237
328.20,92.5958
328.40,92.8460
328.60,92.7124
328.80,92.7358
329.00,92.9915
329.20,92.9823
329.40,93.0265
329.60,93.2537
329.80,93.4060
330.00,93.2621
330.20,93.3371
330.40,93.1266
330.60,93.3799
330.80,93.2805
331.00,93.6156
331.20,93.3631
331.40,93.6344
331.60,93.6723
331.80,93.7318
332.00,93.7013
332.20,93.7698
332.40,93.6908
332.60,93.8377
332.80,94.0006
333.00,94.0225
333.20,94.1671
333.40,94.1799
333.60,94.1893
333.80,93.9683
334.00,94.4944
334.20,94.1956
334.40,94.1278
334.60,94.3715
334.80,94.2755
335.00,94.4745
335.20,94.3975
335.40,94.5699
335.60,94.4269
335.80,94.5579
336.00,94.6598
336.20,94.4977
336.40,94.6276
336.60,94.6884
336.80,94.6006
337.00,94.5112
337.20,94.8412
337.40,94.8212
337.60,94.7947
337.80,94.6778
338.00,94.7221
338.20,94.8009
338.40,94.8907
338.60,94.9562
338.80,94.9563
339.00,95.2002
339.20,95.0895
339.40,95.0649
339.60,95.2105
339.80,95.0375
340.00,95.1125
340.20,95.1975
340.40,95.2248
340.60,95.0374
340.80,95.1949
341.00,95.1476
341.20,95.1993
341.40,95.3290
341.60,95.1750
341.80,95.2678
342.00,95.2128
342.20,95.2822
342.40,95.4690
342.60,95.3585
342.80,95.4216
343.00,95.5314
343.20,95.7078
343.40,95.5051
343.60,95.5504
343.80,95.4403
344.00,95.6019
344.20,95.7665
344.40,95.6444
344.60,95.7036
344.80,95.7201
345.00,95.9607
345.20,95.6527
345.40,95.8439
345.60,95.7117
345.80,95.9967
346.00,95.9275
346.20,95.8722
346.40,95.7847
346.60,95.8987
346.80,95.8661
347.00,95.9233
347.20,96.0458
347.40,95.9678
347.60,95.8775
347.80,95.8570
348.00,96.0740
348.20,96.0143
348.40,96.1529
348.60,96.1637
348.80,96.1937
349.00,96.1869
349.20,96.0196
349.40,95.9435
349.60,96.0379
349.80,96.1064
350.00,96.0191
350.20,96.0011
350.40,96.1296
350.60,96.2494
350.80,96.2940
351.00,96.1222
351.20,96.1790
351.40,96.4504
351.60,96.0996
351.80,96.2507
352.00,96.3076
352.20,96.0873
352.40,96.1870
352.60,96.2876
352.80,96.4610
353.00,96.3453
353.20,96.3162
353.40,96.2154
353.60,96.3479
353.80,96.4781
354.00,96.3852
354.20,96.5794
354.40,96.6121
354.60,96.5780
354.80,96.6319
355.00,96.5900
355.20,96.5031
355.40,96.5683
355.60,96.5680
355.80,96.6520
356.00,96.8679
356.20,96.6333
356.40,96.5899
356.60,96.6244
356.80,96.5994
357.00,96.7180
357.20,96.5227
357.40,96.6788
357.60,96.6423
357.80,96.8217
358.00,96.9912
358.20,96.8987
358.40,96.8926
358.60,96.9345
358.80,97.0438
359.00,97.0285
359.20,96.8610
359.40,96.6915
359.60,96.1679
359.80,96.6876
360.00,96.9152
360.20,96.8381
360.40,96.7262
360.60,96.7248
360.80,96.8923
361.00,96.9688
361.20,96.7322
361.40,97.0605
361.60,96.9950
361.80,96.9709
362.00,96.8030
362.20,97.1200
362.40,96.8791
362.60,97.0544
362.80,96.9862
363.00,96.9463
363.20,97.2636
363.40,96.7864
363.60,96.8141
363.80,97.1181
364.00,96.7530
364.20,96.8684
364.40,96.8807
364.60,96.8274
364.80,96.9319
365.00,96.7629
365.20,96.9215
365.40,96.6964
365.60,96.8460
365.80,96.7979
366.00,96.8835
366.20,96.9967
366.40,96.8574
366.60,96.9395
366.80,96.7834
367.00,96.9155
367.20,96.7370
367.40,96.7396
367.60,96.4001
367.80,96.7413
368.00,97.1026
368.20,97.0072
368.40,96.9359
368.60,96.8446
368.80,96.7500
369.00,96.9011
369.20,96.8249
369.40,96.7639
369.60,96.8125
369.80,96.7473
370.00,96.9625
370.20,96.7243
370.40,96.8950
370.60,96.8549
370.80,97.0699
371.00,97.1769
371.20,96.8488
371.40,96.8379
371.60,96.9373
371.80,96.8099
372.00,96.7605
372.20,96.8865
372.40,97.0430
372.60,97.0491
372.80,97.0015
373.00,97.0061
373.20,96.9298
373.40,96.9324
373.60,96.7957
373.80,96.9804
374.00,96.8841
374.20,96.8607
374.40,97.1129
374.60,96.9762
374.80,96.8080
375.00,96.6912
375.20,97.1436
375.40,96.8634
375.60,97.1027
375.80,97.0297
376.00,96.8992
376.20,97.0876
376.40,96.9677
376.60,97.0342
376.80,97.1616
377.00,97.0693
377.20,97.1143
377.40,97.1786
377.60,97.2402
377.80,97.2126
378.00,97.2929
378.20,96.9664
378.40,97.1797
378.60,97.0307
378.80,96.9578
379.00,97.1311
379.20,96.7458
379.40,97.1542
379.60,96.5244
379.80,96.9034
380.00,96.9115
380.20,96.9736
380.40,97.1619
380.60,97.0978
380.80,97.0981
381.00,97.1038
381.20,96.9460
381.40,97.0016
381.60,97.1080
381.80,97.0903
382.00,97.0047
382.20,97.1050
382.40,96.9722
382.60,97.1186
382.80,97.1829
383.00,96.9203
383.20,97.1779
383.40,97.1470
383.60,97.1860
383.80,97.1517
384.00,97.3771
384.20,97.0726
384.40,97.3775
384.60,96.9957
384.80,97.3475
385.00,97.3226
385.20,97.2156
385.40,97.1889
385.60,96.7801
385.80,96.9585
386.00,97.3377
386.20,97.3162
386.40,97.4519
386.60,97.1587
386.80,97.3082
387.00,97.2536
387.20,97.5387
387.40,97.2227
387.60,97.3716
387.80,97.2558
388.00,97.6478
388.20,97.6057
388.40,97.5376
388.60,97.3719
388.80,97.4091
389.00,97.5038
389.20,97.4585
389.40,97.5612
389.60,97.3539
389.80,97.2719
390.00,97.5320
390.20,97.3921
390.40,97.4625
390.60,97.4925
390.80,97.4256
391.00,97.5659
391.20,97.6479
391.40,97.2274
391.60,97.6509
391.80,97.4797
392.00,97.4773
392.20,97.6451
392.40,97.2509
392.60,97.7485
392.80,97.4957
393.00,97.6326
393.20,97.7422
393.40,97.5523
393.60,97.4819
393.80,97.6418
394.00,97.6404
394.20,97.5455
394.40,97.7114
394.60,97.4820
394.80,97.4091
395.00,97.4807
395.20,96.9061
395.40,97.5573
395.60,97.5746
395.80,97.5361
396.00,97.4914
396.20,97.6585
396.40,97.7619
396.60,97.4239
396.80,97.4467
397.00,97.4802
397.20,97.4938
397.40,97.4511
397.60,97.7045
397.80,97.5494
398.00,97.6122
398.20,97.5318
398.40,97.7519
398.60,97.7131
398.80,97.6429
399.00,97.4272
399.20,97.6378
399.40,97.5262
399.60,97.4181
399.80,97.6110
400.00,97.6722
400.20,97.5812
400.40,97.6000
400.60,97.5296
400.80,97.8495
401.00,97.5462
401.20,97.6909
401.40,97.8618
401.60,97.4545
401.80,97.5009
402.00,97.5634
402.20,97.7216
402.40,97.6161
402.60,97.7173
402.80,97.8025
403.00,97.5333
403.20,97.6758
403.40,97.5611
403.60,97.6481
403.80,97.4979
404.00,97.5524
404.20,97.7195
404.40,97.6015
404.60,97.3771
404.80,97.7385
405.00,97.7992
405.20,97.6197
405.40,97.6196
405.60,97.7490
405.80,97.8817
406.00,97.6761
406.20,97.5803
406.40,97.7370
406.60,97.5890
406.80,97.6321
407.00,97.6688
407.20,97.7089
407.40,97.7099
407.60,97.8292
407.80,97.8511
408.00,97.0919
408.20,97.8521
408.40,97.6370
408.60,97.7461
408.80,97.6897
409.00,97.6161
409.20,97.6310
409.40,97.6838
409.60,97.6578
409.80,97.5935
410.00,97.7766
410.20,97.6499
410.40,97.7947
410.60,97.7705
410.80,97.7663
411.00,97.6763
411.20,97.8187
411.40,97.5258
411.60,97.8187
411.80,97.7422
412.00,97.6664
412.20,97.5286
412.40,97.1108
412.60,97.8077
412.80,97.7170
413.00,97.7030
413.20,97.5806
413.40,97.5582
413.60,97.6480
413.80,97.7545
414.00,97.5396
414.20,97.9127
414.40,97.7569
414.60,97.7430
414.80,97.6779
415.00,97.8147
415.20,97.7408
415.40,97.8107
415.60,97.5796
415.80,98.0249
416.00,97.6270
416.20,97.8279
416.40,97.6745
416.60,97.7384
416.80,97.5796
417.00,97.5956
417.20,97.8491
417.40,97.6617
417.60,97.6066
417.80,97.5631
418.00,97.5601
418.20,97.4188
418.40,97.5759
418.60,97.7540
418.80,97.6934
419.00,97.6858
419.20,97.6147
419.40,97.4165
419.60,97.5733
419.80,97.6421
420.00,97.6120
420.20,97.6985
420.40,97.5914
420.60,97.6546
420.80,97.4414
421.00,97.1484
421.20,97.4084
421.40,97.5351
421.60,97.6045
421.80,97.6673
422.00,97.7874
422.20,97.7956
422.40,97.6992
422.60,97.6650
422.80,97.7159
423.00,97.3458
423.20,97.6181
423.40,97.6862
423.60,97.7446
423.80,97.7158
424.00,97.5613
424.20,97.5867
424.40,97.6799
424.60,97.7363
424.80,97.6405
425.00,97.5951
425.20,97.6298
425.40,97.6069
425.60,97.7132
425.80,97.6464
426.00,97.7170
426.20,97.7799
426.40,97.7916
426.60,97.6964
426.80,97.7451
427.00,97.8465
427.20,97.8558
427.40,97.7996
427.60,97.8751
427.80,97.3292
428.00,97.6313
428.20,97.8875
428.40,97.9101
428.60,97.8632
428.80,97.8588
429.00,97.7714
429.20,97.6958
429.40,97.8754
429.60,97.8846
429.80,97.5593
430.00,97.9179
430.20,97.9789
430.40,97.7949
430.60,97.6953
430.80,97.6319
431.00,97.7040
431.20,97.8108
431.40,97.8038
431.60,97.8512
431.80,97.7638
432.00,97.8265
432.20,97.6442
432.40,97.9018
432.60,97.8056
432.80,97.9335
433.00,97.5221
433.20,97.8942
433.40,97.5941
433.60,97.7807
433.80,97.6589
434.00,97.7605
434.20,97.6608
434.40,97.7596
434.60,97.7943
434.80,97.6235
435.00,97.8238
435.20,97.9576
435.40,97.6652
435.60,97.8514
435.80,97.7807
436.00,98.0437
436.20,97.8909
436.40,97.7276
436.60,97.9178
436.80,97.6870
437.00,97.8492
437.20,97.7425
437.40,97.7726
437.60,97.3845
437.80,97.7215
438.00,98.0337
438.20,97.7379
438.40,97.9982
438.60,97.8521
438.80,97.6144
439.00,97.7436
439.20,97.7640
439.40,97.8208
439.60,97.8134
439.80,97.7881
440.00,97.7355
440.20,97.8169
440.40,97.7663
440.60,97.6708
440.80,97.5943
441.00,97.8217
441.20,97.7838
441.40,97.7735
441.60,97.7473
441.80,97.9821
442.00,97.9528
442.20,97.8153
442.40,97.9632
442.60,97.7738
442.80,97.9938
443.00,98.0380
443.20,97.7547
443.40,97.9737
443.60,97.8857
443.80,97.9222
444.00,97.9303
444.20,97.8799
444.40,98.0149
444.60,97.8045
444.80,97.8957
445.00,97.9063
445.20,97.8371
445.40,97.9072
445.60,97.8695
445.80,97.9887
446.00,97.7450
446.20,97.7636
446.40,97.8480
446.60,97.8531
446.80,97.8918
447.00,97.8894
447.20,97.8037
447.40,97.9074
447.60,97.7894
447.80,97.8413
448.00,97.8155
448.20,98.0062
448.40,98.0474
448.60,97.9163
448.80,98.0388
449.00,98.0238
449.20,97.8373
449.40,98.0026
449.60,97.9768
449.80,97.7835
450.00,97.5191
450.20,97.9137
450.40,97.9708
450.60,98.0745
450.80,98.0429
451.00,97.9796
451.20,97.9775
451.40,98.0969
451.60,98.0865
451.80,97.9001
452.00,98.1549
452.20,97.9624
452.40,97.7680
452.60,97.7992
452.80,97.9847
453.00,97.7813
453.20,97.8103
453.40,97.9541
453.60,97.8367
453.80,97.9968
454.00,97.9822
454.20,97.8889
454.40,97.9653
454.60,97.8201
454.80,97.8966
455.00,97.7073
455.20,97.6408
455.40,97.7025
455.60,97.8347
455.80,97.8586
456.00,97.7970
456.20,97.8683
456.40,97.6415
456.60,97.8633
456.80,97.8671
457.00,97.8897
457.20,97.9285
457.40,97.8161
457.60,97.8785
457.80,97.7984
458.00,97.9805
458.20,97.7144
458.40,97.9424
458.60,97.7869
458.80,97.9273
459.00,97.7626
459.20,97.9330
459.40,97.7074
459.60,97.7259
459.80,97.8630
460.00,97.8859
460.20,97.7674
460.40,97.6478
460.60,97.9883
460.80,97.6902
461.00,97.9038
461.20,97.9719
461.40,98.0323
461.60,98.1103
461.80,97.9797
462.00,97.7991
462.20,97.8502
462.40,97.9533
462.60,98.1043
462.80,97.7465
463.00,98.1012
463.20,98.0783
463.40,97.9480
463.60,98.1712
463.80,98.1322
464.00,98.0430
464.20,97.9943
464.40,98.1364
464.60,98.1065
464.80,97.9644
465.00,98.0325
465.20,98.0146
465.40,98.0745
465.60,97.9834
465.80,98.1506
466.00,97.7923
466.20,97.9158
466.40,97.9428
466.60,98.0341
466.80,97.9995
467.00,98.0814
467.20,98.1241
467.40,98.0049
467.60,98.1051
467.80,98.0886
468.00,98.0028
468.20,98.0872
468.40,97.8092
468.60,98.1429
468.80,97.9251
469.00,98.1570
469.20,97.9229
469.40,97.9768
469.60,98.0379
469.80,98.2246
470.00,97.9454
470.20,97.8524
470.40,98.0297
470.60,98.1006
470.80,98.0233
471.00,98.0878
471.20,97.9999
471.40,98.1756
471.60,98.0530
471.80,98.1079
472.00,97.9982
472.20,98.2924
472.40,98.1899
472.60,98.1613
472.80,98.0135
473.00,98.2282
473.20,98.2113
473.40,98.1748
473.60,98.1042
473.80,98.1429
474.00,98.2505
474.20,98.1101
474.40,97.9924
474.60,98.1408
474.80,98.1567
475.00,98.1350
475.20,98.2827
475.40,98.2017
475.60,98.2268
475.80,98.0769
476.00,98.2060
476.20,98.0890
476.40,98.3114
476.60,98.1457
476.80,98.1008
477.00,98.3064
477.20,98.3036
477.40,98.3076
477.60,98.2878
477.80,98.1485
478.00,98.1279
478.20,98.2397
478.40,98.1451
478.60,98.2207
478.80,98.2508
479.00,98.2450
479.20,98.2447
479.40,98.2813
479.60,98.2790
479.80,98.1178
480.00,98.2999
480.20,98.2153
480.40,98.2293
480.60,98.3157
480.80,98.1167
481.00,98.1855
481.20,98.1042
481.40,98.2653
481.60,98.2069
481.80,98.1333
482.00,98.3378
482.20,98.2944
482.40,97.8831
482.60,98.1273
482.80,98.3130
483.00,98.1209
483.20,98.1088
483.40,98.1665
483.60,98.0685
483.80,97.7873
484.00,97.8859
484.20,97.8485
484.40,97.8629
484.60,97.9324
484.80,98.0304
485.00,98.1622
485.20,98.3078
485.40,98.2961
485.60,98.2447
485.80,98.3594
486.00,98.4334
486.20,98.3618
486.40,98.2753
486.60,98.2319
486.80,98.0778
487.00,97.6409
487.20,98.0412
487.40,98.0868
487.60,98.0286
487.80,98.0899
488.00,98.1031
488.20,98.1705
488.40,98.1800
488.60,98.2503
488.80,98.2817
489.00,98.2096
489.20,98.2662
489.40,98.2558
489.60,98.2739
489.80,98.2983
490.00,98.4162
490.20,98.3007
490.40,98.2833
490.60,98.3368
490.80,98.2365
491.00,98.2736
491.20,98.0388
491.40,98.0402
491.60,98.1114
491.80,97.5391
492.00,97.9972
492.20,98.1711
492.40,98.1004
492.60,98.2823
492.80,98.2634
493.00,98.4405
493.20,98.4267
493.40,98.5234
493.60,98.1973
493.80,98.4933
494.00,98.3727
494.20,98.3642
494.40,98.2866
494.60,98.5934
494.80,98.2660
495.00,98.2961
495.20,98.2539
495.40,98.5257
495.60,98.2466
495.80,98.1228
496.00,98.4400
496.20,98.3358
496.40,98.3858
496.60,98.2261
496.80,98.3243
497.00,98.2690
497.20,98.4107
497.40,98.2533
497.60,98.3082
497.80,98.5764
498.00,98.3539
498.20,98.3869
498.40,98.3347
498.60,98.3738
498.80,98.2366
499.00,98.1372
499.20,98.3604
499.40,98.3013
499.60,98.3158
499.80,98.2466
500.00,98.3470
500.20,98.1145
500.40,98.3898
500.60,98.3356
500.80,98.4605
501.00,98.5044
501.20,98.3363
501.40,98.3310
501.60,98.1967
501.80,98.3092
502.00,98.2162
502.20,98.2931
502.40,98.4062
502.60,98.2398
502.80,98.4188
503.00,98.3839
503.20,98.5496
503.40,98.5480
503.60,98.4212
503.80,98.5429
504.00,98.3233
504.20,98.2415
504.40,98.5083
504.60,98.3068
504.80,98.5363
505.00,98.4282
505.20,98.5757
505.40,98.3479
505.60,98.4206
505.80,98.3171
506.00,98.1988
506.20,98.3715
506.40,98.1646
506.60,98.3226
506.80,98.3602
507.00,98.2479
507.20,98.3843
507.40,98.5118
507.60,98.4626
507.80,98.0013
508.00,98.4761
508.20,98.4705
508.40,98.5475
508.60,98.4754
508.80,98.2509
509.00,98.3381
509.20,98.4597
509.40,98.5266
509.60,98.2577
509.80,98.3870
510.00,98.0935
510.20,98.3046
510.40,98.4679
510.60,98.5001
510.80,98.3284
511.00,98.6271
511.20,98.4423
511.40,98.6067
511.60,98.9648
511.80,98.5616
512.00,98.4703
512.20,98.4496
512.40,98.4492
512.60,98.5438
512.80,98.2609
513.00,98.3051
513.20,98.4042
513.40,98.4083
513.60,98.5966
513.80,98.8311
514.00,98.4433
514.20,98.5598
514.40,98.8219
514.60,98.5230
514.80,98.5850
515.00,98.3857
515.20,98.4580
515.40,98.6762
515.60,98.6309
515.80,98.4845
516.00,98.3169
516.20,98.6023
516.40,98.6870
516.60,98.6443
516.80,98.5056
517.00,98.7893
517.20,98.2181
517.40,98.5115
517.60,98.4499
517.80,98.3739
518.00,98.5461
518.20,98.3803
518.40,98.5296
518.60,98.5268
518.80,98.3637
519.00,98.5272
519.20,98.3661
519.40,98.3335
519.60,98.6471
519.80,98.6058
520.00,98.6976
520.20,98.5645
520.40,98.6243
520.60,98.5538
520.80,98.5967
521.00,98.4496
521.20,98.7358
521.40,98.6503
521.60,98.5872
521.80,98.6482
522.00,98.6928
522.20,98.7414
522.40,98.6985
522.60,98.4534
522.80,98.6250
523.00,98.4985
523.20,98.6906
523.40,98.8897
523.60,98.7551
523.80,98.6262
524.00,98.6440
524.20,98.7907
524.40,98.5885
524.60,98.7060
524.80,98.5306
525.00,98.4563
525.20,98.5498
525.40,98.7010
525.60,98.5885
525.80,98.4573
526.00,98.6513
526.20,98.5900
526.40,98.7802
526.60,98.6409
526.80,98.5897
527.00,98.5335
527.20,98.7476
527.40,98.5924
527.60,98.6507
527.80,98.6748
528.00,98.6872
528.20,98.6451
528.40,98.6330
528.60,98.3788
528.80,98.4231
529.00,98.3881
529.20,98.3561
529.40,98.4007
529.60,98.6440
529.80,98.7201
530.00,98.6392
530.20,98.7708
530.40,98.5598
530.60,98.8890
530.80,98.5815
531.00,98.7041
531.20,98.8427
531.40,98.8373
531.60,98.7405
531.80,98.9090
532.00,98.8714
532.20,98.8256
532.40,98.8038
532.60,98.6526
532.80,98.5098
533.00,98.6478
533.20,98.8200
533.40,98.5336
533.60,98.5580
533.80,98.4924
534.00,98.6805
534.20,98.8882
534.40,98.8216
534.60,98.9414
534.80,98.8423
535.00,98.8928
535.20,98.9028
535.40,99.0945
535.60,98.7971
535.80,98.8002
536.00,98.8395
536.20,98.8422
536.40,98.8344
536.60,98.7543
536.80,98.7056
537.00,98.9064
537.20,98.8345
537.40,98.8451
537.60,98.8670
537.80,98.7123
538.00,98.4983
538.20,99.0143
538.40,98.9965
538.60,98.9178
538.80,99.0963
539.00,99.1904
539.20,99.1955
539.40,98.8288
539.60,99.0831
539.80,98.7374
540.00,98.9945
540.20,99.1046
540.40,98.8172
540.60,98.8880
540.80,98.9797
541.00,98.8762
541.20,98.8207
541.40,98.8627
541.60,98.7538
541.80,98.7554
542.00,98.7576
542.20,98.7766
542.40,98.8187
542.60,99.0474
542.80,99.0043
543.00,98.9581
543.20,99.0374
543.40,99.0186
543.60,99.0567
543.80,99.0971
544.00,98.7901
544.20,98.9061
544.40,98.9540
544.60,99.1725
544.80,98.5844
545.00,99.0538
545.20,98.8762
545.40,99.0718
545.60,98.9622
545.80,99.0796
546.00,99.0740
546.20,99.0305
546.40,99.1148
546.60,98.9624
546.80,99.0284
547.00,98.9805
547.20,98.9072
547.40,99.1185
547.60,98.9513
547.80,99.1399
548.00,98.9484
548.20,99.2563
548.40,99.1413
548.60,99.0817
548.80,99.0115
549.00,99.0377
549.20,98.9438
549.40,99.1109
549.60,98.9788
549.80,98.9725
550.00,99.0928
550.20,99.1202
550.40,99.1676
550.60,99.0104
550.80,99.0236
551.00,99.1351
551.20,99.1647
551.40,99.2405
551.60,98.7892
551.80,99.2115
552.00,99.2375
552.20,99.0382
552.40,98.8036
552.60,98.7392
552.80,99.0070
553.00,99.0574
553.20,98.7707
553.40,99.1230
553.60,99.2058
553.80,99.0633
554.00,99.0629
554.20,99.0261
554.40,99.0976
554.60,99.1109
554.80,99.2095
555.00,99.0166
555.20,99.3506
555.40,99.4644
555.60,99.1524
555.80,99.3198
556.00,99.0187
556.20,99.4752
556.40,99.2128
556.60,99.2532
556.80,99.0552
557.00,99.1781
557.20,99.2228
557.40,99.0523
557.60,99.2409
557.80,99.0297
558.00,98.5428
558.20,98.9140
558.40,99.5193
558.60,98.9978
558.80,99.1266
559.00,99.0936
559.20,99.0439
559.40,99.1868
559.60,99.2715
559.80,98.6619
560.00,98.6845
560.20,98.9740
560.40,99.3132
560.60,99.0999
560.80,99.1285
561.00,98.9369
561.20,98.8881
561.40,99.0502
561.60,99.0814
561.80,99.0279
562.00,98.9705
562.20,99.1017
562.40,99.1802
562.60,99.1526
562.80,99.2938
563.00,99.1493
563.20,98.7876
563.40,99.1854
563.60,99.2219
563.80,99.2064
564.00,99.1011
564.20,99.2303
564.40,98.9064
564.60,99.2456
564.80,99.1722
565.00,99.0658
565.20,99.1353
565.40,99.0585
565.60,99.1237
565.80,98.9529
566.00,99.1797
566.20,99.0703
566.40,98.9049
566.60,99.0823
566.80,99.3280
567.00,99.2856
567.20,98.9386
567.40,99.2103
567.60,99.5237
567.80,99.4212
568.00,99.2332
568.20,99.1591
568.40,99.3123
568.60,99.2288
568.80,99.1520
569.00,99.2204
569.20,99.0276
569.40,99.2384
569.60,98.9776
569.80,99.3416
570.00,99.0769
570.20,99.2170
570.40,99.5101
570.60,99.2025
570.80,99.0285
571.00,99.4362
571.20,99.1815
571.40,98.6230
571.60,99.0992
571.80,99.1716
572.00,99.2573
572.20,99.0329
572.40,99.0301
572.60,99.1412
572.80,99.0436
573.00,99.1140
573.20,99.2071
573.40,99.1511
573.60,99.0490
573.80,99.1955
574.00,99.1917
574.20,99.1629
574.40,99.2265
574.60,99.1105
574.80,99.3678
575.00,98.9457
575.20,99.1474
575.40,99.3029
575.60,99.2487
575.80,99.0538
576.00,99.1588
576.20,99.2523
576.40,99.3355
576.60,99.4576
576.80,99.0713
577.00,99.4699
577.20,98.5015
577.40,99.2709
577.60,99.2999
577.80,99.1547
578.00,99.2516
578.20,98.8574
578.40,99.2463
578.60,98.9481
578.80,99.1434
579.00,99.2781
579.20,98.9183
579.40,98.8910
579.60,99.2043
579.80,99.2500
580.00,98.9353
580.20,99.5486
580.40,99.7411
580.60,99.1731
580.80,99.2685
581.00,99.1215
581.20,98.9738
581.40,99.4940
581.60,99.4780
581.80,99.1246
582.00,99.7099
582.20,99.3580
582.40,99.1158
582.60,98.9293
582.80,99.0363
583.00,99.3947
583.20,99.2522
583.40,99.3041
583.60,99.8120
583.80,99.6915
584.00,98.9723
584.20,98.7886
584.40,99.2261
584.60,99.3110
584.80,99.2598
585.00,99.1288
585.20,99.2999
585.40,99.2544
585.60,99.3111
585.80,99.6053
586.00,99.1593
586.20,98.6742
586.40,99.0898
586.60,99.4790
586.80,99.6002
587.00,99.3004
587.20,99.3713
587.40,99.4846
587.60,99.0717
587.80,99.4193
588.00,99.3880
588.20,99.1761
588.40,99.2369
588.60,99.6647
588.80,99.4231
589.00,99.3223
589.20,99.1466
589.40,99.2671
589.60,99.3597
589.80,99.0557
590.00,99.1764
590.20,99.0294
590.40,98.8678
590.60,99.1025
590.80,99.2135
591.00,99.2894
591.20,99.3083
591.40,99.2102
591.60,99.2799
591.80,98.8679
592.00,99.4104
592.20,99.1739
592.40,99.5120
592.60,99.0821
592.80,99.0286
593.00,99.0088
593.20,99.2372
593.40,99.1347
593.60,99.1071
593.80,99.1790
594.00,99.1316
594.20,98.9515
594.40,99.1138
594.60,99.2579
594.80,99.1478
595.00,99.2680
595.20,99.3416
595.40,99.2351
595.60,99.5041
595.80,99.0052
596.00,99.0036
596.20,99.1700
596.40,99.1522
596.60,99.1365
596.80,99.3252
597.00,99.2641
597.20,99.0667
597.40,99.2482
597.60,99.0669
597.80,99.2235
598.00,99.3896
598.20,99.2647
598.40,99.1295
598.60,99.2510
598.80,99.3643
599.00,99.2064
599.20,99.2781
599.40,99.3650
599.60,99.1823
599.80,99.2003
600.00,99.3838
600.20,99.1374
600.40,99.1813
600.60,99.0534
600.80,99.3270
601.00,99.1022
601.20,99.4065
601.40,99.3090
601.60,99.2783
601.80,98.8703
602.00,98.9902
602.20,99.2057
602.40,98.7961
602.60,99.1786
602.80,99.2055
603.00,99.0018
603.20,99.2538
603.40,99.3359
603.60,99.3998
603.80,99.2759
604.00,99.3652
604.20,99.3130
604.40,99.3580
604.60,99.1823
604.80,99.3159
605.00,99.3093
605.20,98.9783
605.40,99.2288
605.60,99.0561
605.80,99.2887
606.00,99.3262
606.20,99.3418
606.40,99.1821
606.60,99.2949
606.80,99.3280
607.00,99.3710
607.20,99.5391
607.40,99.3325
607.60,99.2705
607.80,99.3232
608.00,99.0936
608.20,99.3716
608.40,99.2389
608.60,99.2025
608.80,99.3448
609.00,98.9981
609.20,99.2586
609.40,99.3097
609.60,99.0017
609.80,99.1103
610.00,99.0319
610.20,99.1851
610.40,99.1801
610.60,99.1900
610.80,99.3369
611.00,99.4419
611.20,99.3758
611.40,99.2950
611.60,99.1780
611.80,99.1671
612.00,99.3135
612.20,99.4372
612.40,99.3639
612.60,99.0110
612.80,99.5565
613.00,99.5167
613.20,99.2738
613.40,99.0773
613.60,99.4226
613.80,99.2540
614.00,99.2140
614.20,99.2090
614.40,99.1570
614.60,99.3751
614.80,99.2951
615.00,99.2671
615.20,99.3319
615.40,99.3991
615.60,99.1824
615.80,99.4838
616.00,99.2739
616.20,99.4983
616.40,99.2031
616.60,99.3022
616.80,99.1513
617.00,99.3438
617.20,99.2770
617.40,98.9813
617.60,99.4294
617.80,99.1543
618.00,99.0840
618.20,99.3465
618.40,99.3296
618.60,99.3882
618.80,99.1947
619.00,98.9420
619.20,99.3875
619.40,99.3444
619.60,99.3638
619.80,99.5205
620.00,99.4410
620.20,99.2896
620.40,99.0660
620.60,99.2162
620.80,99.5247
621.00,99.3669
621.20,99.5732
621.40,99.2027
621.60,99.1569
621.80,99.3366
622.00,99.3108
622.20,99.2247
622.40,99.3403
622.60,99.2070
622.80,99.2751
623.00,99.3705
623.20,99.3147
623.40,99.5918
623.60,99.2565
623.80,99.4725
624.00,99.1698
624.20,99.2206
624.40,99.3776
624.60,99.1288
624.80,99.2201
625.00,99.0829
625.20,99.4403
625.40,99.1808
625.60,99.3717
625.80,99.0203
626.00,99.3400
626.20,99.2197
626.40,99.5853
626.60,99.1351
626.80,99.4409
627.00,99.3351
627.20,99.2486
627.40,99.1002
627.60,99.2420
627.80,99.3550
628.00,99.0985
628.20,99.2756
628.40,99.3966
628.60,99.2138
628.80,99.2021
629.00,99.6615
629.20,99.6180
629.40,99.4991
629.60,99.2876
629.80,99.4059
630.00,99.1119
630.20,99.2504
630.40,99.4558
630.60,99.4363
630.80,99.5192
631.00,99.3701
631.20,99.0379
631.40,99.3960
631.60,99.3301
631.80,99.3012
632.00,99.3738
632.20,99.5234
632.40,99.0130
632.60,98.8322
632.80,99.3168
633.00,99.3083
633.20,99.1280
633.40,99.0335
633.60,99.3538
633.80,99.6568
634.00,99.4905
634.20,99.6049
634.40,99.2546
634.60,99.3069
634.80,99.4176
635.00,98.9786
635.20,99.5095
635.40,99.3885
635.60,99.4245
635.80,99.7228
636.00,99.4577
636.20,99.4798
636.40,99.3815
636.60,99.1703
636.80,99.2922
637.00,99.4667
637.20,99.4184
637.40,99.4397
637.60,99.2498
637.80,99.0915
638.00,99.2833
638.20,99.3154
638.40,99.6739
638.60,99.4470
638.80,99.0373
639.00,99.5291
639.20,99.3182
639.40,99.3533
639.60,99.1856
639.80,99.5959
640.00,99.4902
640.20,99.3227
640.40,99.5498
640.60,99.8152
640.80,99.2516
641.00,99.5721
641.20,99.7804
641.40,99.4204
641.60,99.2118
641.80,99.4781
642.00,99.7343
642.20,99.2890
642.40,99.5827
642.60,99.4261
642.80,99.3631
643.00,99.2909
643.20,99.5871
643.40,99.4181
643.60,99.7963
643.80,99.6781
644.00,99.1949
644.20,99.4137
644.40,99.4121
644.60,99.2787
644.80,98.8768
645.00,99.8669
645.20,99.4699
645.40,99.5542
645.60,99.4660
645.80,99.1146
646.00,99.3843
646.20,99.6610
646.40,99.7448
646.60,99.4348
646.80,99.5532
647.00,99.0476
647.20,99.5415
647.40,99.3298
647.60,99.5421
647.80,99.8041
648.00,99.2641
648.20,99.4179
648.40,99.2946
648.60,99.3999
648.80,99.4075
649.00,99.8055
649.20,99.5007
649.40,99.7260
649.60,99.3801
649.80,99.1179
650.00,99.6351
650.20,99.4539
650.40,99.2449
650.60,99.2996
650.80,99.2969
651.00,99.4474
651.20,99.5970
651.40,99.6151
651.60,99.4373
651.80,99.6070
652.00,99.6398
652.20,99.2980
652.40,99.4365
652.60,99.2137
652.80,99.5077
653.00,99.3577
653.20,99.6627
653.40,99.2613
653.60,99.7844
653.80,99.6135
654.00,99.7804
654.20,99.5326
654.40,99.9301
654.60,99.6711
654.80,99.7332
655.00,99.5376
655.20,99.5902
655.40,99.3596
655.60,99.8385
655.80,99.4425
656.00,99.5247
656.20,99.5294
656.40,99.4691
656.60,99.3408
656.80,99.4192
657.00,99.6128
657.20,99.7755
657.40,99.7714
657.60,99.4628
657.80,99.6798
658.00,99.6649
658.20,99.6458
658.40,99.5242
658.60,99.3567
658.80,99.6041
659.00,99.6050
659.20,99.6399
659.40,99.2771
659.60,99.5200
659.80,99.9367
660.00,98.7587
660.20,99.7130
660.40,99.4289
660.60,99.6462
660.80,99.9228
661.00,100.1141
661.20,99.6415
661.40,99.3383
661.60,99.6859
661.80,100.0521
662.00,99.8342
662.20,99.6171
662.40,99.6024
662.60,99.4960
662.80,99.6615
663.00,100.2421
663.20,99.4089
663.40,99.4070
663.60,99.8853
663.80,99.6952
664.00,99.6424
664.20,99.9633
664.40,99.2988
664.60,99.7862
664.80,99.5197
665.00,99.6771
665.20,99.4370
665.40,99.2923
665.60,99.5208
665.80,99.4695
666.00,99.3387
666.20,99.5962
666.40,99.8942
666.60,99.9736
666.80,99.9804
667.00,99.6037
667.20,99.9288
667.40,99.6638
667.60,99.9522
667.80,99.8323
668.00,99.3786
668.20,99.9415
668.40,99.9808
668.60,99.9462
668.80,99.4714
669.00,99.9465
669.20,100.0552
669.40,99.8535
669.60,99.5899
669.80,99.5266
670.00,99.6216
670.20,100.1508
670.40,99.8114
670.60,100.0601
670.80,99.7650
671.00,99.7293
671.20,99.6878
671.40,99.8264
671.60,99.5499
671.80,99.5360
672.00,99.4309
672.20,99.8317
672.40,99.8814
672.60,99.7297
672.80,99.7834
673.00,99.4212
673.20,99.5378
673.40,99.9280
673.60,100.1454
673.80,99.4754
674.00,100.2092
674.20,99.6306
674.40,99.6479
674.60,100.0683
674.80,99.6436
675.00,99.9790
675.20,99.9751
675.40,99.9231
675.60,99.4712
675.80,99.7087
676.00,100.1230
676.20,100.3825
676.40,99.9018
676.60,100.0699
676.80,99.9785
677.00,99.8938
677.20,99.9271
677.40,99.9525
677.60,99.5050
677.80,99.3790
678.00,99.8674
678.20,100.0380
678.40,99.5651
678.60,99.5988
678.80,99.4845
679.00,99.7092
679.20,99.9972
679.40,99.9192
679.60,99.8620
679.80,99.9338
680.00,99.8192
680.20,100.0110
680.40,99.6667
680.60,99.9121
680.80,99.3064
681.00,99.8998
681.20,99.6847
681.40,99.6963
681.60,99.7531
681.80,99.7492
682.00,99.5424
682.20,100.1130
682.40,99.4089
682.60,99.6003
682.80,99.6128
683.00,99.7244
683.20,99.5718
683.40,99.9592
683.60,99.6189
683.80,99.7396
684.00,99.9320
684.20,99.9209
684.40,99.4427
684.60,100.1469
684.80,99.7056
685.00,99.4104
685.20,99.8159
685.40,99.8495
685.60,99.5511
685.80,99.8525
686.00,100.4669
686.20,99.6216
686.40,99.3603
686.60,100.2982
686.80,99.8805
687.00,99.3588
687.20,100.2514
687.40,99.8278
687.60,99.8365
687.80,99.7410
688.00,99.4103
688.20,100.0808
688.40,99.8607
688.60,99.3728
688.80,99.5684
689.00,99.9394
689.20,99.6369
689.40,100.2146
689.60,99.7585
689.80,99.3551
690.00,99.9481
690.20,99.8745
690.40,99.5899
690.60,99.8474
690.80,99.4785
691.00,99.5992
691.20,99.7617
691.40,99.7708
691.60,100.0800
691.80,100.0723
692.00,99.9303
692.20,100.0402
692.40,100.1437
692.60,99.3230
692.80,100.1056
693.00,100.0280
693.20,99.2817
693.40,99.5707
693.60,99.6280
693.80,99.9347
694.00,99.9920
694.20,99.7731
694.40,99.8566
694.60,100.0417
694.80,99.9970
695.00,100.0636
695.20,99.8909
695.40,99.5849
695.60,99.4017
695.80,99.7525
696.00,99.5854
696.20,99.7127
696.40,99.8095
696.60,100.3847
696.80,99.9021
697.00,99.7118
697.20,100.0233
697.40,100.0097
697.60,99.5922
697.80,100.0328
698.00,99.6278
698.20,99.8907
698.40,99.6581
698.60,99.9126
698.80,99.9133
699.00,99.7561
699.20,99.9483
699.40,99.8228
699.60,99.7447
699.80,99.9623
700.00,100.1023
700.20,99.9020
700.40,100.1430
700.60,100.1353
700.80,99.7698
701.00,100.1041
701.20,100.3940
701.40,100.0582
701.60,100.3017
701.80,100.3320
702.00,100.4366
702.20,99.9899
702.40,100.0635
702.60,100.3239
702.80,99.9571
703.00,100.3258
703.20,99.9978
703.40,100.2803
703.60,100.1834
703.80,99.9685
704.00,100.2176
704.20,100.3022
704.40,100.0530
704.60,99.5971
704.80,100.3747
705.00,100.0738
705.20,99.8989
705.40,100.1354
705.60,100.2004
705.80,99.9866
706.00,100.2638
706.20,100.2440
706.40,100.1602
706.60,100.2834
706.80,99.9544
707.00,100.0694
707.20,100.1894
707.40,100.1547
707.60,100.0510
707.80,100.0981
708.00,100.0092
708.20,99.6554
708.40,100.0949
708.60,100.1472
708.80,100.1452
709.00,99.9502
709.20,100.2392
709.40,100.1688
709.60,99.9398
709.80,100.3074
710.00,100.1150
710.20,99.8613
710.40,99.8992
710.60,99.9616
710.80,99.5996
711.00,100.4180
711.20,100.0220
711.40,99.8530
711.60,100.1365
711.80,99.9880
712.00,100.1038
712.20,100.2580
712.40,100.0254
712.60,100.2179
712.80,100.0071
713.00,100.0100
713.20,100.2319
713.40,100.2738
713.60,100.3905
713.80,100.2327
714.00,100.2975
714.20,99.8700
714.40,99.9881
714.60,100.1587
714.80,100.2240
715.00,99.7479
715.20,99.8999
715.40,100.3354
715.60,99.9369
715.80,100.0858
716.00,100.1112
716.20,100.1674
716.40,99.8428
716.60,100.0378
716.80,100.2299
717.00,99.9627
717.20,99.9911
717.40,99.7495
717.60,99.8966
717.80,99.9426
718.00,99.9020
718.20,100.0559
718.40,100.2870
718.60,99.7815
718.80,100.3100
719.00,99.9306
719.20,99.8538
719.40,100.2792
719.60,100.2727
719.80,99.9808
720.00,100.2374
720.20,100.5049
720.40,100.0895
720.60,99.8681
720.80,99.8592
721.00,100.1464
721.20,100.3153
721.40,100.3079
721.60,100.0956
721.80,99.8310
722.00,100.0574
722.20,99.9628
722.40,99.9863
722.60,99.7258
722.80,100.0838
723.00,99.9106
723.20,99.9536
723.40,100.1656
723.60,99.9179
723.80,100.2263
724.00,99.8863
724.20,99.9767
724.40,99.7522
724.60,100.0400
724.80,99.7824
725.00,100.2524
725.20,100.1303
725.40,99.8461
725.60,100.0433
725.80,99.9143
726.00,100.1266
726.20,100.1232
726.40,100.1210
726.60,100.1595
726.80,100.1062
727.00,100.0569
727.20,100.0914
727.40,99.8154
727.60,99.9901
727.80,99.6332
728.00,100.1882
728.20,99.9367
728.40,99.9367
728.60,100.0741
728.80,100.0669
729.00,99.7803
729.20,100.0256
729.40,100.2468
729.60,100.1173
729.80,100.0102
730.00,99.9942
730.20,100.1976
730.40,100.0820
730.60,99.9297
730.80,99.7257
731.00,99.8331
731.20,100.3823
731.40,100.0775
731.60,99.9600
731.80,99.6197
732.00,99.7814
732.20,99.9215
732.40,99.9294
732.60,99.6912
732.80,99.9100
733.00,99.8718
733.20,99.8202
733.40,100.0078
733.60,99.8793
733.80,99.8836
734.00,99.8720
734.20,99.6720
734.40,100.2070
734.60,99.9279
734.80,99.8585
735.00,99.8950
735.20,99.9598
735.40,100.0608
735.60,100.2206
735.80,99.9638
736.00,100.2922
736.20,99.9079
736.40,100.1855
736.60,99.9578
736.80,100.1458
737.00,99.9369
737.20,100.0460
737.40,100.0121
737.60,100.2526
737.80,100.0774
738.00,99.8811
738.20,100.1185
738.40,100.1143
738.60,100.2918
738.80,99.9294
739.00,99.6641
739.20,100.1043
739.40,99.8590
739.60,99.8475
739.80,99.9427
740.00,99.9402
740.20,100.1489
740.40,99.9677
740.60,99.9623
740.80,99.8909
741.00,100.2447
741.20,100.0133
741.40,100.2113
741.60,100.0090
741.80,100.0522
742.00,100.2393
742.20,99.6813
742.40,100.1459
742.60,99.6591
742.80,100.0356
743.00,100.2669
743.20,100.0565
743.40,99.9454
743.60,99.6863
743.80,99.7414
744.00,99.7385
744.20,99.9095
744.40,99.7332
744.60,99.8727
744.80,100.1130
745.00,100.2779
745.20,99.7910
745.40,100.0339
745.60,100.2490
745.80,99.6370
746.00,99.9673
746.20,99.7805
746.40,99.7172
746.60,100.3645
746.80,99.4346
747.00,100.1733
747.20,100.5947
747.40,100.0591
747.60,100.0196
747.80,100.4251
748.00,100.3200
748.20,100.3534
748.40,100.4930
748.60,100.1533
748.80,100.3731
749.00,99.8899
749.20,99.6235
749.40,100.0987
749.60,99.6983
749.80,99.9386
750.00,100.4775
750.20,99.6319
750.40,100.0971
750.60,100.0970
750.80,100.1995
751.00,100.2370
751.20,100.3651
751.40,100.2196
751.60,100.1170
751.80,100.4093
752.00,100.4632
752.20,100.3005
752.40,100.2182
752.60,99.6827
752.80,100.5002
753.00,100.1832
753.20,99.8075
753.40,100.2389
753.60,100.0365
753.80,99.8754
754.00,99.9538
754.20,100.1099
754.40,100.1029
754.60,100.0584
754.80,99.8259
755.00,100.2201
755.20,99.6848
755.40,99.8261
755.60,100.6419
755.80,100.4439
756.00,100.3335
756.20,100.0675
756.40,99.9181
756.60,100.4694
756.80,100.3641
757.00,100.2844
757.20,100.3046
757.40,99.7758
757.60,100.2937
757.80,100.0591
758.00,100.0880
758.20,100.4819
758.40,100.0910
758.60,99.9897
758.80,100.1089
759.00,100.4915
759.20,100.1069
759.40,99.5703
759.60,99.9177
759.80,100.3849
760.00,99.7761
760.20,100.3329
760.40,100.0403
760.60,100.1578
760.80,99.2647
761.00,100.0456
761.20,100.0634
761.40,100.3888
761.60,99.8768
761.80,100.1148
762.00,99.3482
762.20,100.2694
762.40,100.1099
762.60,99.6512
762.80,100.1781
763.00,99.7915
763.20,100.1328
763.40,99.9301
763.60,99.3448
763.80,99.7900
764.00,99.3538
764.20,99.8542
764.40,99.8969
764.60,100.0518
764.80,99.7909
765.00,99.7523
765.20,99.3568
765.40,99.9683
765.60,99.7783
765.80,100.0774
766.00,100.2783
766.20,99.7314
766.40,100.4098
766.60,99.9349
766.80,100.1029
767.00,99.9267
767.20,100.2095
767.40,100.2155
767.60,99.9372
767.80,100.3577
768.00,100.0761
768.20,100.7101
768.40,100.0892
768.60,99.7536
768.80,100.1647
769.00,100.0298
769.20,100.2169
769.40,99.8482
769.60,100.0491
769.80,100.4478
770.00,100.0759
770.20,100.3251
770.40,100.1469
770.60,99.8492
770.80,100.8209
771.00,100.1803
771.20,99.9265
771.40,99.7743
771.60,100.1582
771.80,100.2534
772.00,100.6541
772.20,100.3376
772.40,99.8817
772.60,100.5939
772.80,100.3865
773.00,100.2157
773.20,100.4205
773.40,100.3718
773.60,100.3634
773.80,100.1573
774.00,100.8628
774.20,100.7260
774.40,100.9286
774.60,100.4362
774.80,100.4469
775.00,100.7512
775.20,100.2222
775.40,100.6562
775.60,100.6037
775.80,100.1706
776.00,100.5104
776.20,100.3098
776.40,100.3542
776.60,100.0240
776.80,100.5495
777.00,100.1721
777.20,100.4735
777.40,100.3033
777.60,101.0057
777.80,100.6864
778.00,100.4711
778.20,101.2476
778.40,100.4397
778.60,100.1395
778.80,100.8931
779.00,100.8498
779.20,99.7656
779.40,100.2899
779.60,100.5957
779.80,100.2121
780.00,100.4538
780.20,100.2293
780.40,100.9677
780.60,100.3751
780.80,100.5239
781.00,100.8935
781.20,100.2533
781.40,100.4103
781.60,100.0085
781.80,100.9914
782.00,100.2663
782.20,100.6775
782.40,100.3906
782.60,100.5499
782.80,100.4055
783.00,100.0963
783.20,100.9885
783.40,100.1425
783.60,100.5732
783.80,100.9086
784.00,100.1845
784.20,100.4283
784.40,100.9411
784.60,99.7767
784.80,100.2470
785.00,100.6445
785.20,100.1830
785.40,100.1118
785.60,100.0533
785.80,99.6643
786.00,100.2351
786.20,100.1251
786.40,99.9576
786.60,100.8966
786.80,99.8122
787.00,100.2613
787.20,99.8292
787.40,100.4562
787.60,100.3052
787.80,100.0340
788.00,99.5730
788.20,100.3621
788.40,100.7596
788.60,100.0048
788.80,100.3941
789.00,100.1326
789.20,100.1914
789.40,100.7742
789.60,100.1547
789.80,100.3805
790.00,100.2321
790.20,100.7760
790.40,100.4794
790.60,99.7722
790.80,100.1304
791.00,100.2301
791.20,100.8278
791.40,99.8545
791.60,99.4601
791.80,100.3906
792.00,100.3846
792.20,100.3292
792.40,100.0476
792.60,100.3853
792.80,100.1665
793.00,100.4020
793.20,100.5543
793.40,100.4419
793.60,100.3699
793.80,100.3049
794.00,100.5127
794.20,100.2341
794.40,100.5661
794.60,99.5231
794.80,100.1210
795.00,100.1544
795.20,99.9954
795.40,100.2650
795.60,100.3490
795.80,100.1958
796.00,100.0737
796.20,100.2637
796.40,99.9744
796.60,99.9173
796.80,100.3621
797.00,101.2086
797.20,100.7225
797.40,100.8613
797.60,99.5260
797.80,100.5047
798.00,100.4563
798.20,100.1484
798.40,100.4626
798.60,101.1907
798.80,100.2297
799.00,100.2831
799.20,100.9191
799.40,100.5056
799.60,100.9831
799.80,100.7483
800.00,100.0311
