Batch,scan006
EV300,140607
Data Mode,%T  None
Sample,Mylar_%T_190-800
Cycle,Cycle01
Date Collected,7/28/2016
Time Collected,2:29:24PM
Entries,Data Points
nm,%T
190.00,0.0081
190.20,0.0088
190.40,0.0132
190.60,0.0107
190.80,0.0118
191.00,0.0063
191.20,0.0110
191.40,0.0057
191.60,0.0113
191.80,0.0091
192.00,0.0075
192.20,0.0095
192.40,0.0105
192.60,0.0120
192.80,0.0080
193.00,0.0096
193.20,0.0053
193.40,0.0068
193.60,0.0060
193.80,0.0059
194.00,0.0062
194.20,0.0018
194.40,0.0040
194.60,0.0077
194.80,0.0077
195.00,0.0047
195.20,0.0064
195.40,0.0075
195.60,0.0051
195.80,0.0050
196.00,0.0070
196.20,0.0043
196.40,0.0032
196.60,0.0037
196.80,0.0051
197.00,0.0027
197.20,0.0035
197.40,0.0029
197.60,0.0033
197.80,0.0024
198.00,0.0043
198.20,0.0033
198.40,0.0052
198.60,0.0040
198.80,0.0036
199.00,0.0055
199.20,0.0045
199.40,0.0045
199.60,0.0044
199.80,0.0060
200.00,0.0047
200.20,0.0033
200.40,0.0057
200.60,0.0050
200.80,0.0037
201.00,0.0040
201.20,0.0032
201.40,0.0047
201.60,0.0038
201.80,0.0048
202.00,0.0030
202.20,0.0045
202.40,0.0056
202.60,0.0033
202.80,0.0046
203.00,0.0039
203.20,0.0057
203.40,0.0037
203.60,0.0050
203.80,0.0051
204.00,0.0049
204.20,0.0057
204.40,0.0042
204.60,0.0041
204.80,0.0041
205.00,0.0035
205.20,0.0034
205.40,0.0045
205.60,0.0040
205.80,0.0049
206.00,0.0027
206.20,0.0036
206.40,0.0031
206.60,0.0025
206.80,0.0042
207.00,0.0060
207.20,0.0045
207.40,0.0027
207.60,0.0048
207.80,0.0041
208.00,0.0050
208.20,0.0045
208.40,0.0034
208.60,0.0019
208.80,0.0027
209.00,0.0041
209.20,0.0045
209.40,0.0032
209.60,0.0050
209.80,0.0043
210.00,0.0041
210.20,0.0047
210.40,0.0062
210.60,0.0040
210.80,0.0039
211.00,0.0045
211.20,0.0040
211.40,0.0067
211.60,0.0038
211.80,0.0036
212.00,0.0033
212.20,0.0030
212.40,0.0052
212.60,0.0049
212.80,0.0055
213.00,0.0024
213.20,0.0052
213.40,0.0045
213.60,0.0041
213.80,0.0049
214.00,0.0057
214.20,0.0033
214.40,0.0038
214.60,0.0050
214.80,0.0061
215.00,0.0054
215.20,0.0058
215.40,0.0052
215.60,0.0046
215.80,0.0050
216.00,0.0038
216.20,0.0052
216.40,0.0055
216.60,0.0046
216.80,0.0039
217.00,0.0040
217.20,0.0036
217.40,0.0028
217.60,0.0029
217.80,0.0054
218.00,0.0040
218.20,0.0052
218.40,0.0041
218.60,0.0029
218.80,0.0019
219.00,0.0041
219.20,0.0048
219.40,0.0045
219.60,0.0058
219.80,0.0041
220.00,0.0041
220.20,0.0035
220.40,0.0035
220.60,0.0028
220.80,0.0047
221.00,0.0032
221.20,0.0033
221.40,0.0052
221.60,0.0040
221.80,0.0028
222.00,0.0040
222.20,0.0040
222.40,0.0032
222.60,0.0036
222.80,0.0025
223.00,0.0069
223.20,0.0000
223.40,0.0033
223.60,0.0017
223.80,0.0031
224.00,0.0065
224.20,0.0028
224.40,0.0018
224.60,0.0015
224.80,0.0008
225.00,0.0025
225.20,0.0000
225.40,0.0029
225.60,0.0017
225.80,0.0020
226.00,0.0027
226.20,0.0024
226.40,0.0027
226.60,0.0031
226.80,0.0004
227.00,0.0026
227.20,0.0014
227.40,0.0014
227.60,0.0014
227.80,0.0009
228.00,0.0018
228.20,0.0025
228.40,0.0005
228.60,0.0014
228.80,0.0013
229.00,0.0021
229.20,0.0011
229.40,0.0017
229.60,0.0025
229.80,0.0016
230.00,0.0017
230.20,0.0019
230.40,0.0029
230.60,0.0014
230.80,0.0004
231.00,0.0020
231.20,0.0017
231.40,0.0017
231.60,0.0015
231.80,0.0012
232.00,0.0026
232.20,0.0014
232.40,0.0002
232.60,0.0020
232.80,0.0013
233.00,0.0026
233.20,0.0009
233.40,0.0025
233.60,0.0031
233.80,0.0022
234.00,0.0020
234.20,0.0014
234.40,0.0015
234.60,0.0013
234.80,0.0022
235.00,0.0031
235.20,0.0007
235.40,0.0017
235.60,0.0028
235.80,0.0003
236.00,0.0011
236.20,0.0016
236.40,0.0028
236.60,0.0013
236.80,0.0041
237.00,0.0045
237.20,0.0044
237.40,0.0017
237.60,0.0008
237.80,0.0016
238.00,0.0035
238.20,0.0047
238.40,0.0029
238.60,0.0041
238.80,0.0011
239.00,0.0011
239.20,0.0021
239.40,0.0025
239.60,0.0033
239.80,0.0011
240.00,0.0026
240.20,0.0023
240.40,0.0040
240.60,0.0018
240.80,0.0017
241.00,0.0034
241.20,0.0007
241.40,0.0014
241.60,0.0019
241.80,0.0020
242.00,0.0018
242.20,0.0008
242.40,0.0020
242.60,0.0010
242.80,0.0018
243.00,0.0015
243.20,0.0018
243.40,0.0007
243.60,0.0015
243.80,0.0014
244.00,0.0014
244.20,0.0018
244.40,0.0031
244.60,0.0033
244.80,0.0000
245.00,0.0037
245.20,0.0021
245.40,0.0017
245.60,0.0007
245.80,0.0012
246.00,0.0015
246.20,0.0021
246.40,0.0018
246.60,0.0031
246.80,0.0019
247.00,0.0019
247.20,0.0026
247.40,0.0022
247.60,0.0024
247.80,0.0012
248.00,0.0025
248.20,0.0021
248.40,0.0018
248.60,0.0015
248.80,0.0009
249.00,0.0006
249.20,0.0000
249.40,0.0030
249.60,0.0013
249.80,0.0026
250.00,0.0017
250.20,0.0018
250.40,0.0013
250.60,0.0024
250.80,0.0020
251.00,0.0036
251.20,0.0021
251.40,0.0043
251.60,0.0011
251.80,0.0019
252.00,0.0028
252.20,0.0010
252.40,0.0017
252.60,0.0012
252.80,0.0000
253.00,0.0022
253.20,0.0032
253.40,0.0000
253.60,0.0022
253.80,0.0025
254.00,0.0029
254.20,0.0002
254.40,0.0053
254.60,0.0017
254.80,0.0003
255.00,0.0023
255.20,0.0031
255.40,0.0039
255.60,0.0024
255.80,0.0048
256.00,0.0018
256.20,0.0009
256.40,0.0042
256.60,0.0036
256.80,0.0028
257.00,0.0043
257.20,0.0018
257.40,0.0025
257.60,0.0000
257.80,0.0028
258.00,0.0019
258.20,0.0002
258.40,0.0069
258.60,0.0067
258.80,0.0014
259.00,0.0059
259.20,0.0020
259.40,0.0031
259.60,0.0027
259.80,0.0024
260.00,0.0016
260.20,0.0018
260.40,0.0027
260.60,0.0029
260.80,0.0015
261.00,0.0038
261.20,0.0035
261.40,0.0035
261.60,0.0022
261.80,0.0046
262.00,0.0050
262.20,0.0021
262.40,0.0034
262.60,0.0045
262.80,0.0054
263.00,0.0019
263.20,0.0042
263.40,0.0059
263.60,0.0008
263.80,0.0004
264.00,0.0060
264.20,0.0028
264.40,0.0000
264.60,0.0015
264.80,0.0038
265.00,0.0057
265.20,0.0058
265.40,0.0057
265.60,0.0055
265.80,0.0055
266.00,0.0059
266.20,0.0038
266.40,0.0057
266.60,0.0069
266.80,0.0033
267.00,0.0040
267.20,0.0053
267.40,0.0037
267.60,0.0044
267.80,0.0045
268.00,0.0058
268.20,0.0060
268.40,0.0053
268.60,0.0071
268.80,0.0060
269.00,0.0042
269.20,0.0089
269.40,0.0039
269.60,0.0065
269.80,0.0069
270.00,0.0050
270.20,0.0055
270.40,0.0039
270.60,0.0059
270.80,0.0047
271.00,0.0056
271.20,0.0055
271.40,0.0050
271.60,0.0036
271.80,0.0052
272.00,0.0040
272.20,0.0037
272.40,0.0053
272.60,0.0047
272.80,0.0059
273.00,0.0048
273.20,0.0049
273.40,0.0062
273.60,0.0047
273.80,0.0054
274.00,0.0044
274.20,0.0068
274.40,0.0050
274.60,0.0061
274.80,0.0052
275.00,0.0066
275.20,0.0066
275.40,0.0052
275.60,0.0057
275.80,0.0066
276.00,0.0066
276.20,0.0059
276.40,0.0068
276.60,0.0057
276.80,0.0067
277.00,0.0056
277.20,0.0083
277.40,0.0066
277.60,0.0062
277.80,0.0075
278.00,0.0069
278.20,0.0076
278.40,0.0060
278.60,0.0070
278.80,0.0057
279.00,0.0065
279.20,0.0060
279.40,0.0070
279.60,0.0072
279.80,0.0065
280.00,0.0071
280.20,0.0074
280.40,0.0070
280.60,0.0072
280.80,0.0084
281.00,0.0081
281.20,0.0064
281.40,0.0063
281.60,0.0054
281.80,0.0074
282.00,0.0072
282.20,0.0082
282.40,0.0066
282.60,0.0081
282.80,0.0071
283.00,0.0077
283.20,0.0086
283.40,0.0091
283.60,0.0090
283.80,0.0093
284.00,0.0069
284.20,0.0070
284.40,0.0076
284.60,0.0068
284.80,0.0070
285.00,0.0059
285.20,0.0072
285.40,0.0085
285.60,0.0072
285.80,0.0084
286.00,0.0068
286.20,0.0090
286.40,0.0056
286.60,0.0077
286.80,0.0065
287.00,0.0073
287.20,0.0064
287.40,0.0060
287.60,0.0071
287.80,0.0077
288.00,0.0085
288.20,0.0088
288.40,0.0096
288.60,0.0084
288.80,0.0095
289.00,0.0095
289.20,0.0084
289.40,0.0093
289.60,0.0089
289.80,0.0088
290.00,0.0098
290.20,0.0102
290.40,0.0087
290.60,0.0085
290.80,0.0077
291.00,0.0082
291.20,0.0085
291.40,0.0094
291.60,0.0075
291.80,0.0073
292.00,0.0091
292.20,0.0105
292.40,0.0100
292.60,0.0105
292.80,0.0105
293.00,0.0102
293.20,0.0125
293.40,0.0107
293.60,0.0092
293.80,0.0077
294.00,0.0104
294.20,0.0087
294.40,0.0096
294.60,0.0096
294.80,0.0075
295.00,0.0086
295.20,0.0088
295.40,0.0101
295.60,0.0099
295.80,0.0095
296.00,0.0099
296.20,0.0096
296.40,0.0103
296.60,0.0088
296.80,0.0088
297.00,0.0085
297.20,0.0084
297.40,0.0078
297.60,0.0080
297.80,0.0081
298.00,0.0096
298.20,0.0094
298.40,0.0105
298.60,0.0096
298.80,0.0096
299.00,0.0112
299.20,0.0116
299.40,0.0116
299.60,0.0132
299.80,0.0122
300.00,0.0126
300.20,0.0132
300.40,0.0117
300.60,0.0135
300.80,0.0138
301.00,0.0143
301.20,0.0142
301.40,0.0138
301.60,0.0165
301.80,0.0134
302.00,0.0158
302.20,0.0146
302.40,0.0149
302.60,0.0168
302.80,0.0174
303.00,0.0160
303.20,0.0173
303.40,0.0208
303.60,0.0220
303.80,0.0239
304.00,0.0230
304.20,0.0252
304.40,0.0240
304.60,0.0240
304.80,0.0277
305.00,0.0361
305.20,0.0359
305.40,0.0389
305.60,0.0434
305.80,0.0448
306.00,0.0467
306.20,0.0486
306.40,0.0522
306.60,0.0514
306.80,0.0518
307.00,0.0571
307.20,0.0554
307.40,0.0549
307.60,0.0581
307.80,0.0543
308.00,0.0522
308.20,0.0518
308.40,0.0522
308.60,0.0506
308.80,0.0497
309.00,0.0506
309.20,0.0512
309.40,0.0545
309.60,0.0538
309.80,0.0544
310.00,0.0568
310.20,0.0580
310.40,0.0578
310.60,0.0637
310.80,0.0697
311.00,0.0798
311.20,0.1050
311.40,0.1436
311.60,0.1820
311.80,0.2190
312.00,0.2638
312.20,0.2992
312.40,0.3380
312.60,0.4039
312.80,0.4833
313.00,0.5931
313.20,0.7390
313.40,0.9256
313.60,1.1569
313.80,1.4437
314.00,1.8052
314.20,2.2344
314.40,2.7551
314.60,3.3383
314.80,3.9784
315.00,4.6484
315.20,5.3723
315.40,6.2247
315.60,7.1415
315.80,8.2495
316.00,9.4592
316.20,10.7778
316.40,12.0988
316.60,13.4962
316.80,14.9355
317.00,16.3752
317.20,17.8127
317.40,19.2358
317.60,20.6908
317.80,21.6479
318.00,23.1847
318.20,24.7407
318.40,26.2213
318.60,27.6650
318.80,29.1069
319.00,30.5170
319.20,31.9278
319.40,33.1733
319.60,34.3291
319.80,35.5267
320.00,36.7018
320.20,37.8390
320.40,38.9480
320.60,40.0809
320.80,41.1921
321.00,42.2112
321.20,43.2469
321.40,44.2233
321.60,45.1361
321.80,46.0316
322.00,46.9600
322.20,47.7294
322.40,48.5646
322.60,49.3127
322.80,50.0394
323.00,50.8434
323.20,51.4717
323.40,52.1956
323.60,52.8578
323.80,53.5110
324.00,54.1037
324.20,54.5694
324.40,55.1381
324.60,55.5406
324.80,56.0410
325.00,56.4603
325.20,56.9256
325.40,57.3932
325.60,57.8251
325.80,58.2166
326.00,58.5797
326.20,59.0060
326.40,59.4184
326.60,59.7086
326.80,60.0373
327.00,60.2981
327.20,60.6609
327.40,61.0015
327.60,61.2001
327.80,61.5317
328.00,61.8014
328.20,62.0562
328.40,62.3192
328.60,62.6689
328.80,62.8908
329.00,63.0963
329.20,63.3648
329.40,63.5708
329.60,63.8512
329.80,64.0373
330.00,64.2538
330.20,64.4057
330.40,64.6481
330.60,64.8186
330.80,65.0123
331.00,65.2615
331.20,65.3609
331.40,65.5896
331.60,65.7093
331.80,65.9263
332.00,66.1029
332.20,66.3181
332.40,66.4098
332.60,66.6267
332.80,66.7319
333.00,66.8832
333.20,67.0077
333.40,67.2161
333.60,67.3380
333.80,67.4262
334.00,67.4744
334.20,67.5701
334.40,67.6296
334.60,67.7489
334.80,67.8472
335.00,67.9919
335.20,68.0482
335.40,68.1507
335.60,68.2214
335.80,68.2693
336.00,68.3334
336.20,68.3460
336.40,68.4058
336.60,68.4516
336.80,68.5392
337.00,68.5799
337.20,68.6024
337.40,68.6173
337.60,68.7888
337.80,68.8244
338.00,68.7957
338.20,68.8406
338.40,68.9591
338.60,68.9356
338.80,68.9971
339.00,69.0247
339.20,69.1191
339.40,69.1219
339.60,69.1618
339.80,69.1913
340.00,69.1979
340.20,69.2762
340.40,69.3660
340.60,69.4099
340.80,69.4649
341.00,69.5186
341.20,69.5652
341.40,69.6766
341.60,69.7794
341.80,69.8435
342.00,69.8443
342.20,69.9365
342.40,69.9989
342.60,70.1084
342.80,70.1984
343.00,70.3148
343.20,70.3468
343.40,70.5466
343.60,70.5378
343.80,70.6769
344.00,70.7735
344.20,70.8774
344.40,70.9686
344.60,71.0350
344.80,71.1618
345.00,71.2464
345.20,71.3787
345.40,71.4195
345.60,71.4783
345.80,71.6096
346.00,71.6247
346.20,71.7418
346.40,71.7786
346.60,71.8728
346.80,71.9887
347.00,72.0287
347.20,72.0363
347.40,72.0365
347.60,72.1373
347.80,72.2081
348.00,72.2321
348.20,72.3037
348.40,72.3202
348.60,72.3831
348.80,72.4333
349.00,72.4079
349.20,72.4915
349.40,72.4864
349.60,72.5030
349.80,72.5135
350.00,72.6019
350.20,72.6280
350.40,72.6474
350.60,72.7236
350.80,72.6355
351.00,72.6164
351.20,72.7802
351.40,72.8134
351.60,72.7994
351.80,72.8346
352.00,72.7723
352.20,72.8450
352.40,72.9019
352.60,72.8681
352.80,72.8617
353.00,72.8910
353.20,72.9766
353.40,72.9843
353.60,73.0116
353.80,73.1065
354.00,73.1177
354.20,73.1334
354.40,73.1836
354.60,73.2739
354.80,73.2204
355.00,73.2406
355.20,73.3342
355.40,73.3400
355.60,73.3533
355.80,73.3841
356.00,73.5731
356.20,73.4949
356.40,73.5269
356.60,73.6207
356.80,73.7410
357.00,73.8519
357.20,73.9928
357.40,74.0126
357.60,74.0540
357.80,74.2228
358.00,74.2861
358.20,74.3657
358.40,74.3973
358.60,74.5629
358.80,74.5592
359.00,74.5753
359.20,74.5872
359.40,74.6808
359.60,74.7536
359.80,74.8918
360.00,74.9450
360.20,74.9455
360.40,75.0901
360.60,75.0778
360.80,75.2899
361.00,75.2283
361.20,75.4124
361.40,75.5190
361.60,75.7790
361.80,75.9461
362.00,75.7853
362.20,75.8960
362.40,76.0150
362.60,76.0441
362.80,76.0461
363.00,76.0663
363.20,76.0642
363.40,75.9851
363.60,76.0285
363.80,76.0747
364.00,76.0343
364.20,75.9457
364.40,76.0324
364.60,76.0526
364.80,76.0867
365.00,76.1538
365.20,76.2094
365.40,76.2433
365.60,76.2147
365.80,76.2653
366.00,76.3008
366.20,76.3762
366.40,76.4297
366.60,76.3963
366.80,76.5191
367.00,76.5356
367.20,76.6564
367.40,76.6290
367.60,76.6590
367.80,76.7303
368.00,76.7116
368.20,76.7940
368.40,76.8337
368.60,76.8310
368.80,76.9038
369.00,77.0478
369.20,77.1174
369.40,77.1286
369.60,77.1365
369.80,77.1348
370.00,77.3136
370.20,77.2939
370.40,77.3974
370.60,77.4751
370.80,77.3960
371.00,77.5393
371.20,77.5377
371.40,77.6254
371.60,77.6302
371.80,77.7087
372.00,77.8067
372.20,77.8728
372.40,78.0109
372.60,78.0113
372.80,77.9913
373.00,78.1098
373.20,78.2118
373.40,78.1565
373.60,78.2362
373.80,78.4617
374.00,78.4644
374.20,78.4494
374.40,78.5224
374.60,78.7037
374.80,78.7886
375.00,78.8007
375.20,78.8821
375.40,78.7901
375.60,78.9882
375.80,79.0617
376.00,79.1984
376.20,79.2429
376.40,79.2932
376.60,79.2963
376.80,79.2838
377.00,79.3595
377.20,79.4329
377.40,79.4507
377.60,79.4817
377.80,79.4319
378.00,79.5956
378.20,79.4918
378.40,79.5601
378.60,79.6323
378.80,79.6300
379.00,79.7162
379.20,79.7824
379.40,79.8111
379.60,79.7921
379.80,79.8580
380.00,79.9432
380.20,79.8548
380.40,79.9761
380.60,79.7962
380.80,79.8461
381.00,79.9275
381.20,80.0302
381.40,79.8386
381.60,79.9327
381.80,80.0063
382.00,79.9438
382.20,79.9370
382.40,79.9312
382.60,80.0148
382.80,79.9751
383.00,80.0812
383.20,79.8798
383.40,79.8829
383.60,79.9326
383.80,79.8083
384.00,79.8613
384.20,79.8528
384.40,79.8056
384.60,79.8603
384.80,79.8436
385.00,79.7824
385.20,79.7563
385.40,79.7677
385.60,79.8491
385.80,79.7715
386.00,79.7012
386.20,79.6958
386.40,79.6558
386.60,79.7376
386.80,79.6994
387.00,79.7577
387.20,79.6647
387.40,79.7479
387.60,79.7316
387.80,79.6977
388.00,79.7053
388.20,79.7039
388.40,79.6939
388.60,79.6792
388.80,79.7114
389.00,79.6866
389.20,79.6158
389.40,79.7318
389.60,79.6579
389.80,79.6111
390.00,79.6996
390.20,79.7445
390.40,79.7313
390.60,79.7926
390.80,79.8356
391.00,79.7440
391.20,79.8227
391.40,79.8503
391.60,80.0090
391.80,79.8702
392.00,79.8347
392.20,79.8007
392.40,79.9132
392.60,79.9906
392.80,80.0565
393.00,79.9552
393.20,80.0582
393.40,80.1475
393.60,80.1458
393.80,80.2566
394.00,80.2804
394.20,80.2822
394.40,80.3619
394.60,80.3615
394.80,80.3739
395.00,80.3909
395.20,80.4098
395.40,80.4077
395.60,80.5079
395.80,80.5148
396.00,80.6214
396.20,80.5929
396.40,80.6813
396.60,80.7193
396.80,80.7314
397.00,80.7921
397.20,80.8539
397.40,80.9509
397.60,80.9430
397.80,80.9617
398.00,81.0110
398.20,81.0328
398.40,81.1312
398.60,81.1902
398.80,81.0931
399.00,81.1998
399.20,81.3310
399.40,81.3865
399.60,81.3637
399.80,81.4363
400.00,81.4465
400.20,81.4512
400.40,81.5467
400.60,81.6135
400.80,81.5934
401.00,81.6137
401.20,81.6895
401.40,81.7043
401.60,81.7344
401.80,81.6606
402.00,81.6860
402.20,81.7298
402.40,81.7725
402.60,81.8467
402.80,81.8819
403.00,81.8660
403.20,81.9558
403.40,81.9213
403.60,81.9177
403.80,81.9040
404.00,81.9331
404.20,81.9046
404.40,81.9112
404.60,81.9343
404.80,81.9463
405.00,81.9063
405.20,81.8927
405.40,81.8398
405.60,81.9019
405.80,81.9849
406.00,81.9709
406.20,81.9472
406.40,81.9440
406.60,81.9731
406.80,81.9649
407.00,81.8943
407.20,81.9344
407.40,81.8912
407.60,81.8880
407.80,81.9151
408.00,81.8872
408.20,81.8327
408.40,81.9561
408.60,81.8695
408.80,81.8147
409.00,81.9420
409.20,81.9552
409.40,81.8688
409.60,81.8504
409.80,81.9003
410.00,81.9100
410.20,81.8973
410.40,81.8292
410.60,81.8280
410.80,81.7396
411.00,81.7551
411.20,81.8179
411.40,81.8133
411.60,81.7634
411.80,81.8055
412.00,81.7639
412.20,81.8251
412.40,81.8516
412.60,81.7929
412.80,81.8093
413.00,81.8119
413.20,81.8195
413.40,81.7988
413.60,81.8285
413.80,81.8401
414.00,81.7971
414.20,81.8171
414.40,81.8837
414.60,81.8839
414.80,81.8371
415.00,81.8225
415.20,81.8780
415.40,81.8962
415.60,81.8756
415.80,81.8572
416.00,81.8900
416.20,81.8729
416.40,81.9683
416.60,81.9209
416.80,81.9037
417.00,81.9955
417.20,81.9912
417.40,81.9477
417.60,81.9291
417.80,81.9954
418.00,81.9789
418.20,82.1211
418.40,82.1297
418.60,82.0628
418.80,82.0759
419.00,82.1240
419.20,82.1034
419.40,82.1234
419.60,82.1404
419.80,82.2432
420.00,82.1956
420.20,82.1919
420.40,82.2690
420.60,82.2808
420.80,82.2809
421.00,82.2917
421.20,82.3744
421.40,82.4221
421.60,82.4210
421.80,82.4228
422.00,82.4756
422.20,82.4807
422.40,82.4697
422.60,82.5228
422.80,82.5743
423.00,82.6354
423.20,82.6139
423.40,82.6965
423.60,82.6613
423.80,82.7123
424.00,82.7809
424.20,82.8592
424.40,82.8124
424.60,82.8787
424.80,82.8947
425.00,82.9265
425.20,82.9631
425.40,82.9742
425.60,82.9590
425.80,82.9873
426.00,83.0782
426.20,83.0531
426.40,83.1707
426.60,83.1346
426.80,83.1339
427.00,83.2056
427.20,83.2863
427.40,83.2105
427.60,83.2704
427.80,83.3312
428.00,83.3417
428.20,83.3418
428.40,83.4351
428.60,83.4524
428.80,83.4120
429.00,83.3847
429.20,83.5226
429.40,83.4578
429.60,83.5750
429.80,83.5686
430.00,83.6040
430.20,83.6485
430.40,83.6580
430.60,83.6074
430.80,83.6200
431.00,83.7044
431.20,83.7571
431.40,83.6442
431.60,83.6996
431.80,83.6684
432.00,83.8549
432.20,83.7385
432.40,83.7852
432.60,83.7843
432.80,83.8235
433.00,83.7059
433.20,83.8018
433.40,83.7741
433.60,83.7824
433.80,83.7378
434.00,83.7321
434.20,83.8780
434.40,83.8467
434.60,83.7866
434.80,83.9382
435.00,83.8005
435.20,83.7608
435.40,83.8802
435.60,83.8030
435.80,83.8721
436.00,83.7508
436.20,83.8162
436.40,83.7720
436.60,83.8184
436.80,83.8632
437.00,83.7830
437.20,83.7968
437.40,83.8835
437.60,83.7883
437.80,83.7290
438.00,83.7249
438.20,83.7080
438.40,83.7166
438.60,83.7294
438.80,83.7772
439.00,83.7179
439.20,83.6893
439.40,83.7164
439.60,83.7078
439.80,83.7450
440.00,83.5887
440.20,83.5851
440.40,83.6437
440.60,83.6135
440.80,83.5190
441.00,83.5900
441.20,83.4515
441.40,83.5218
441.60,83.4950
441.80,83.4918
442.00,83.5056
442.20,83.3682
442.40,83.4829
442.60,83.4332
442.80,83.4389
443.00,83.5115
443.20,83.3775
443.40,83.3028
443.60,83.4357
443.80,83.3937
444.00,83.3161
444.20,83.3767
444.40,83.3107
444.60,83.2870
444.80,83.3184
445.00,83.2071
445.20,83.2682
445.40,83.2360
445.60,83.2193
445.80,83.1567
446.00,83.2504
446.20,83.3076
446.40,83.1536
446.60,83.1310
446.80,83.1372
447.00,83.1016
447.20,83.0950
447.40,83.1165
447.60,83.0578
447.80,83.0554
448.00,83.0757
448.20,82.9921
448.40,83.0108
448.60,82.9530
448.80,82.9599
449.00,82.9572
449.20,82.9285
449.40,82.8470
449.60,82.7993
449.80,82.8208
450.00,82.7306
450.20,82.8004
450.40,82.6721
450.60,82.6687
450.80,82.7240
451.00,82.6766
451.20,82.7583
451.40,82.6445
451.60,82.6069
451.80,82.6911
452.00,82.6545
452.20,82.5385
452.40,82.6083
452.60,82.6172
452.80,82.5577
453.00,82.5841
453.20,82.5934
453.40,82.5583
453.60,82.6237
453.80,82.6059
454.00,82.4820
454.20,82.5684
454.40,82.5012
454.60,82.4872
454.80,82.5083
455.00,82.4299
455.20,82.4463
455.40,82.4204
455.60,82.4909
455.80,82.4760
456.00,82.4067
456.20,82.3388
456.40,82.3228
456.60,82.3758
456.80,82.4108
457.00,82.3972
457.20,82.4267
457.40,82.2457
457.60,82.4156
457.80,82.4105
458.00,82.3039
458.20,82.2949
458.40,82.3305
458.60,82.3092
458.80,82.3659
459.00,82.3450
459.20,82.3741
459.40,82.3728
459.60,82.3981
459.80,82.3861
460.00,82.4314
460.20,82.4622
460.40,82.4074
460.60,82.4667
460.80,82.4857
461.00,82.4504
461.20,82.4686
461.40,82.5882
461.60,82.4578
461.80,82.5310
462.00,82.5893
462.20,82.5739
462.40,82.5779
462.60,82.6097
462.80,82.7816
463.00,82.5374
463.20,82.6516
463.40,82.6072
463.60,82.6658
463.80,82.6406
464.00,82.6715
464.20,82.6797
464.40,82.8304
464.60,82.7761
464.80,82.8565
465.00,82.8379
465.20,82.8013
465.40,82.8431
465.60,82.9797
465.80,82.9846
466.00,82.9419
466.20,83.0659
466.40,83.1170
466.60,83.0771
466.80,83.1160
467.00,83.1786
467.20,83.1228
467.40,83.2285
467.60,83.3032
467.80,83.2419
468.00,83.3507
468.20,83.3553
468.40,83.3484
468.60,83.3850
468.80,83.5059
469.00,83.4686
469.20,83.6342
469.40,83.7181
469.60,83.5620
469.80,83.7020
470.00,83.8874
470.20,83.7211
470.40,83.8682
470.60,83.8894
470.80,83.8853
471.00,83.9054
471.20,83.9995
471.40,84.0154
471.60,84.0299
471.80,84.1321
472.00,84.0477
472.20,84.0772
472.40,84.2827
472.60,84.3123
472.80,84.1873
473.00,84.3134
473.20,84.3837
473.40,84.3029
473.60,84.4907
473.80,84.4855
474.00,84.3828
474.20,84.5151
474.40,84.6785
474.60,84.4510
474.80,84.6190
475.00,84.6579
475.20,84.5181
475.40,84.6450
475.60,84.7276
475.80,84.6861
476.00,84.6480
476.20,84.8273
476.40,84.7936
476.60,84.6965
476.80,84.9037
477.00,84.8797
477.20,84.7718
477.40,84.8782
477.60,84.9257
477.80,84.8884
478.00,85.0125
478.20,85.0607
478.40,84.9421
478.60,84.9880
478.80,85.0669
479.00,85.0165
479.20,85.0097
479.40,85.0862
479.60,84.9988
479.80,84.9833
480.00,85.1020
480.20,85.1168
480.40,85.1018
480.60,85.0807
480.80,85.1787
481.00,85.1015
481.20,85.0826
481.40,85.1768
481.60,85.0266
481.80,85.0848
482.00,85.1827
482.20,85.1602
482.40,85.0681
482.60,85.1456
482.80,85.2407
483.00,85.1260
483.20,85.1400
483.40,85.2710
483.60,85.2870
483.80,85.2291
484.00,85.3647
484.20,85.3338
484.40,85.2360
484.60,85.2284
484.80,85.2849
485.00,85.1556
485.20,85.1700
485.40,85.2744
485.60,85.2026
485.80,85.1941
486.00,85.2583
486.20,85.1995
486.40,85.1149
486.60,85.1995
486.80,85.2075
487.00,85.1769
487.20,85.1703
487.40,85.2403
487.60,85.1870
487.80,85.1817
488.00,85.2338
488.20,85.1773
488.40,85.0856
488.60,85.0838
488.80,85.1600
489.00,85.0603
489.20,84.9933
489.40,85.0760
489.60,85.0403
489.80,84.9614
490.00,84.9307
490.20,85.0468
490.40,84.9464
490.60,84.9012
490.80,84.9251
491.00,84.9948
491.20,84.8989
491.40,84.9418
491.60,84.9785
491.80,84.8611
492.00,84.8494
492.20,84.8882
492.40,84.8676
492.60,84.7922
492.80,84.8284
493.00,84.9224
493.20,84.7834
493.40,84.8521
493.60,84.8795
493.80,84.9058
494.00,84.7985
494.20,84.7739
494.40,84.7788
494.60,84.7958
494.80,84.8156
495.00,84.8846
495.20,84.8772
495.40,84.7079
495.60,84.7371
495.80,84.7528
496.00,84.7188
496.20,84.7620
496.40,84.7081
496.60,84.6845
496.80,84.6968
497.00,84.6309
497.20,84.7030
497.40,84.6344
497.60,84.5450
497.80,84.5532
498.00,84.6100
498.20,84.6086
498.40,84.4842
498.60,84.5174
498.80,84.6202
499.00,84.6608
499.20,84.4770
499.40,84.6211
499.60,84.6739
499.80,84.6079
500.00,84.4010
500.20,84.5099
500.40,84.4454
500.60,84.5608
500.80,84.4747
501.00,84.5319
501.20,84.5587
501.40,84.4967
501.60,84.3322
501.80,84.4983
502.00,84.4305
502.20,84.3296
502.40,84.4649
502.60,84.3384
502.80,84.2850
503.00,84.4367
503.20,84.3745
503.40,84.4047
503.60,84.2025
503.80,84.4896
504.00,84.3871
504.20,84.4075
504.40,84.3709
504.60,84.3760
504.80,84.3686
505.00,84.3921
505.20,84.4175
505.40,84.3709
505.60,84.3691
505.80,84.2940
506.00,84.3768
506.20,84.2879
506.40,84.3598
506.60,84.2459
506.80,84.2158
507.00,84.2794
507.20,84.2740
507.40,84.2665
507.60,84.2778
507.80,84.2401
508.00,84.3523
508.20,84.4539
508.40,84.2768
508.60,84.1864
508.80,84.2523
509.00,84.2997
509.20,84.3319
509.40,84.2309
509.60,84.2708
509.80,84.2398
510.00,84.1359
510.20,84.3102
510.40,84.3495
510.60,84.2066
510.80,84.2449
511.00,84.2687
511.20,84.2824
511.40,84.3033
511.60,84.2333
511.80,84.3001
512.00,84.2932
512.20,84.2803
512.40,84.2498
512.60,84.2467
512.80,84.2210
513.00,84.2859
513.20,84.2639
513.40,84.2127
513.60,84.2454
513.80,84.2648
514.00,84.2717
514.20,84.2519
514.40,84.2570
514.60,84.2639
514.80,84.1687
515.00,84.3844
515.20,84.0556
515.40,84.2705
515.60,84.2920
515.80,84.2539
516.00,84.0902
516.20,84.2118
516.40,84.2392
516.60,84.2714
516.80,84.2522
517.00,84.1682
517.20,84.1035
517.40,84.1963
517.60,84.2936
517.80,84.2282
518.00,84.2555
518.20,84.2328
518.40,84.2319
518.60,84.1861
518.80,84.2815
519.00,84.1339
519.20,84.1572
519.40,84.1773
519.60,84.2481
519.80,84.2801
520.00,84.1903
520.20,84.2338
520.40,84.2569
520.60,84.1884
520.80,84.3265
521.00,84.2031
521.20,84.2737
521.40,84.1909
521.60,84.1975
521.80,84.0957
522.00,84.1866
522.20,84.1098
522.40,84.1364
522.60,84.0329
522.80,84.2000
523.00,84.1896
523.20,84.1596
523.40,84.1439
523.60,84.1473
523.80,84.1694
524.00,84.2231
524.20,84.1453
524.40,84.2527
524.60,84.1014
524.80,84.0873
525.00,84.0140
525.20,84.2284
525.40,84.2090
525.60,84.1003
525.80,84.2290
526.00,84.2304
526.20,84.2384
526.40,84.1508
526.60,84.1781
526.80,84.2247
527.00,84.1975
527.20,84.2768
527.40,84.2256
527.60,84.1066
527.80,84.1564
528.00,84.1787
528.20,84.1963
528.40,84.2152
528.60,84.2327
528.80,84.1702
529.00,84.1563
529.20,84.1949
529.40,84.2756
529.60,84.2566
529.80,84.3038
530.00,84.4125
530.20,84.3876
530.40,84.2952
530.60,84.2932
530.80,84.3308
531.00,84.2999
531.20,84.2650
531.40,84.2599
531.60,84.3194
531.80,84.3048
532.00,84.2432
532.20,84.2539
532.40,84.2007
532.60,84.2465
532.80,84.3343
533.00,84.2970
533.20,84.2694
533.40,84.3013
533.60,84.3184
533.80,84.3017
534.00,84.2471
534.20,84.2900
534.40,84.3102
534.60,84.3698
534.80,84.4202
535.00,84.4157
535.20,84.3560
535.40,84.3388
535.60,84.3500
535.80,84.4443
536.00,84.3509
536.20,84.2625
536.40,84.3647
536.60,84.4545
536.80,84.4910
537.00,84.4139
537.20,84.4658
537.40,84.3481
537.60,84.3832
537.80,84.4275
538.00,84.4017
538.20,84.4518
538.40,84.4215
538.60,84.4975
538.80,84.4717
539.00,84.4376
539.20,84.5460
539.40,84.4572
539.60,84.3737
539.80,84.4845
540.00,84.4634
540.20,84.5110
540.40,84.5457
540.60,84.5098
540.80,84.5230
541.00,84.6394
541.20,84.6172
541.40,84.6040
541.60,84.6185
541.80,84.6435
542.00,84.6048
542.20,84.6986
542.40,84.6912
542.60,84.6785
542.80,84.6946
543.00,84.6716
543.20,84.6456
543.40,84.7212
543.60,84.7366
543.80,84.7563
544.00,84.7545
544.20,84.8270
544.40,84.8287
544.60,84.7967
544.80,84.6675
545.00,84.8133
545.20,84.8038
545.40,84.6458
545.60,84.7270
545.80,84.7908
546.00,84.7712
546.20,84.8396
546.40,84.8498
546.60,84.8630
546.80,84.9046
547.00,84.8962
547.20,84.8994
547.40,84.9163
547.60,84.8940
547.80,84.8861
548.00,84.9284
548.20,84.8520
548.40,84.8421
548.60,84.8957
548.80,84.9147
549.00,84.9209
549.20,84.8273
549.40,84.8659
549.60,84.9764
549.80,85.0054
550.00,84.9012
550.20,84.9167
550.40,84.9286
550.60,85.0422
550.80,85.0617
551.00,84.8901
551.20,84.9855
551.40,85.0799
551.60,84.9921
551.80,84.8958
552.00,84.9672
552.20,85.0385
552.40,85.0141
552.60,84.8363
552.80,84.9570
553.00,84.9158
553.20,84.8250
553.40,84.8961
553.60,84.9873
553.80,84.8969
554.00,85.0108
554.20,84.9843
554.40,84.9918
554.60,85.0094
554.80,84.9251
555.00,85.0337
555.20,84.8389
555.40,85.0004
555.60,85.0392
555.80,84.9670
556.00,85.0625
556.20,85.1139
556.40,84.8920
556.60,85.0553
556.80,84.9853
557.00,84.9512
557.20,84.9400
557.40,84.9924
557.60,85.0017
557.80,85.0455
558.00,85.1653
558.20,85.0092
558.40,85.0613
558.60,85.0582
558.80,85.0872
559.00,84.9018
559.20,85.0488
559.40,85.1210
559.60,85.0880
559.80,85.0593
560.00,84.9084
560.20,84.9963
560.40,85.0503
560.60,84.8968
560.80,85.0296
561.00,84.8594
561.20,84.9358
561.40,85.0525
561.60,85.0531
561.80,85.0334
562.00,85.0366
562.20,85.0224
562.40,84.8727
562.60,85.0423
562.80,85.0767
563.00,84.9031
563.20,84.9600
563.40,85.0467
563.60,85.0891
563.80,84.7891
564.00,84.9249
564.20,84.9944
564.40,84.8789
564.60,84.9421
564.80,84.8477
565.00,84.9488
565.20,84.9388
565.40,84.9855
565.60,84.9853
565.80,84.9636
566.00,84.9041
566.20,84.8835
566.40,84.9340
566.60,84.9387
566.80,84.9524
567.00,84.9867
567.20,84.8190
567.40,84.9074
567.60,84.8421
567.80,84.8479
568.00,84.9951
568.20,84.9501
568.40,84.8665
568.60,85.1118
568.80,84.9773
569.00,84.9600
569.20,84.9843
569.40,84.9270
569.60,84.8430
569.80,84.8430
570.00,84.8426
570.20,84.8231
570.40,84.8937
570.60,84.8166
570.80,84.8748
571.00,84.9189
571.20,84.9259
571.40,84.7700
571.60,84.8586
571.80,84.9266
572.00,84.7299
572.20,84.7205
572.40,84.7559
572.60,84.8253
572.80,84.7857
573.00,84.7816
573.20,84.7339
573.40,84.8403
573.60,84.9132
573.80,85.0258
574.00,84.9231
574.20,84.6917
574.40,84.9407
574.60,84.9693
574.80,84.9075
575.00,84.8898
575.20,84.8938
575.40,84.7359
575.60,84.8873
575.80,84.7091
576.00,84.8731
576.20,84.8801
576.40,84.9050
576.60,84.9879
576.80,84.8357
577.00,84.8662
577.20,85.0230
577.40,84.9351
577.60,84.8695
577.80,84.9736
578.00,85.0293
578.20,85.0996
578.40,84.7924
578.60,84.7687
578.80,85.0620
579.00,84.8814
579.20,85.0367
579.40,84.9358
579.60,84.8920
579.80,85.0624
580.00,84.8636
580.20,84.8658
580.40,84.9481
580.60,84.8301
580.80,84.9323
581.00,84.8729
581.20,85.1997
581.40,85.1811
581.60,85.0769
581.80,84.9293
582.00,84.9318
582.20,85.0434
582.40,85.0225
582.60,85.1381
582.80,85.1703
583.00,85.0984
583.20,84.9720
583.40,84.9432
583.60,85.1450
583.80,85.0860
584.00,84.8756
584.20,85.1819
584.40,84.8992
584.60,84.7765
584.80,84.9801
585.00,85.2288
585.20,85.1712
585.40,85.3151
585.60,85.1556
585.80,84.9406
586.00,84.9145
586.20,85.1609
586.40,85.1678
586.60,85.2555
586.80,85.2922
587.00,85.1257
587.20,85.0698
587.40,85.3725
587.60,85.0639
587.80,85.4491
588.00,85.2300
588.20,85.1986
588.40,85.4410
588.60,85.2044
588.80,85.4158
589.00,85.4288
589.20,85.4490
589.40,85.5412
589.60,85.5187
589.80,85.2104
590.00,85.0664
590.20,85.2162
590.40,85.2243
590.60,85.2303
590.80,85.1305
591.00,85.2600
591.20,85.0392
591.40,85.2171
591.60,85.3894
591.80,85.1775
592.00,85.2379
592.20,85.2038
592.40,85.1188
592.60,85.1802
592.80,85.2807
593.00,85.2404
593.20,85.3348
593.40,85.3444
593.60,85.3617
593.80,85.3452
594.00,85.3557
594.20,85.4505
594.40,85.3639
594.60,85.4121
594.80,85.3548
595.00,85.4197
595.20,85.3416
595.40,85.3813
595.60,85.4151
595.80,85.3341
596.00,85.6032
596.20,85.5020
596.40,85.5628
596.60,85.5864
596.80,85.5108
597.00,85.5436
597.20,85.5764
597.40,85.4946
597.60,85.5972
597.80,85.6883
598.00,85.6495
598.20,85.5353
598.40,85.5107
598.60,85.5990
598.80,85.7197
599.00,85.6696
599.20,85.6066
599.40,85.7748
599.60,85.6681
599.80,85.7113
600.00,85.8957
600.20,85.8295
600.40,85.7299
600.60,85.6674
600.80,85.8459
601.00,85.9324
601.20,85.7758
601.40,85.7839
601.60,85.8090
601.80,85.8431
602.00,85.9281
602.20,85.7927
602.40,85.9289
602.60,85.8676
602.80,85.9647
603.00,85.9788
603.20,85.9159
603.40,85.9027
603.60,85.7833
603.80,85.7331
604.00,85.7503
604.20,85.7607
604.40,85.8445
604.60,85.7682
604.80,85.8149
605.00,85.9067
605.20,85.8820
605.40,86.0373
605.60,86.0008
605.80,85.9432
606.00,85.9504
606.20,85.9291
606.40,86.0682
606.60,86.1893
606.80,86.1685
607.00,85.9905
607.20,86.2279
607.40,86.3361
607.60,86.4248
607.80,86.2775
608.00,86.0387
608.20,86.2288
608.40,86.1944
608.60,86.2798
608.80,86.1957
609.00,86.3200
609.20,86.1789
609.40,86.2020
609.60,86.3010
609.80,86.5414
610.00,86.3504
610.20,86.2714
610.40,86.1756
610.60,86.2512
610.80,86.2711
611.00,86.4255
611.20,86.5466
611.40,86.3243
611.60,86.3529
611.80,86.3937
612.00,86.5521
612.20,86.4949
612.40,86.4710
612.60,86.3227
612.80,86.3215
613.00,86.5715
613.20,86.5527
613.40,86.6194
613.60,86.5269
613.80,86.5002
614.00,86.4370
614.20,86.7009
614.40,86.7101
614.60,86.5992
614.80,86.4997
615.00,86.5552
615.20,86.6897
615.40,86.7442
615.60,86.7815
615.80,86.6818
616.00,86.5756
616.20,86.6500
616.40,86.7916
616.60,86.8160
616.80,86.7473
617.00,86.5887
617.20,86.4007
617.40,86.6423
617.60,86.8658
617.80,86.9383
618.00,86.8416
618.20,86.8333
618.40,86.6844
618.60,86.8833
618.80,86.9259
619.00,87.0731
619.20,87.0078
619.40,86.8167
619.60,86.6358
619.80,86.9165
620.00,87.1179
620.20,87.0888
620.40,87.0578
620.60,86.9825
620.80,86.6246
621.00,86.9086
621.20,86.9131
621.40,87.0954
621.60,86.8299
621.80,86.5994
622.00,86.7521
622.20,86.9537
622.40,87.1227
622.60,86.9858
622.80,86.8359
623.00,86.8180
623.20,86.6830
623.40,87.0380
623.60,87.1274
623.80,87.0742
624.00,86.8726
624.20,86.7267
624.40,86.7542
624.60,87.0592
624.80,87.0879
625.00,86.9921
625.20,86.9049
625.40,86.7359
625.60,86.9582
625.80,87.0742
626.00,87.2060
626.20,86.7914
626.40,86.7040
626.60,86.8499
626.80,86.9559
627.00,87.1876
627.20,87.2330
627.40,87.0399
627.60,86.8690
627.80,86.8162
628.00,86.9835
628.20,87.3179
628.40,87.2926
628.60,87.1583
628.80,86.8100
629.00,86.8868
629.20,86.9767
629.40,87.1648
629.60,87.4996
629.80,87.2105
630.00,86.8250
630.20,86.7910
630.40,87.0690
630.60,87.2921
630.80,87.5139
631.00,86.9725
631.20,86.9646
631.40,86.8671
631.60,87.2143
631.80,87.3100
632.00,87.4049
632.20,87.1830
632.40,86.9869
632.60,86.9800
632.80,87.4279
633.00,87.2629
633.20,87.4922
633.40,87.1823
633.60,86.8015
633.80,86.9659
634.00,87.3159
634.20,87.4913
634.40,87.4600
634.60,86.9579
634.80,86.8862
635.00,86.8924
635.20,87.2417
635.40,87.4599
635.60,87.1547
635.80,87.1603
636.00,86.7687
636.20,86.7986
636.40,87.1462
636.60,87.5334
636.80,87.2688
637.00,87.1998
637.20,86.8073
637.40,87.1068
637.60,87.2349
637.80,87.4700
638.00,87.5088
638.20,87.0742
638.40,86.8612
638.60,87.0705
638.80,87.2078
639.00,87.4354
639.20,87.4559
639.40,86.9392
639.60,86.8472
639.80,86.9927
640.00,87.2604
640.20,87.3722
640.40,87.4649
640.60,87.0650
640.80,86.8760
641.00,86.8456
641.20,86.9614
641.40,87.5263
641.60,87.3282
641.80,87.0221
642.00,86.9786
642.20,86.6960
642.40,87.1456
642.60,87.3900
642.80,87.6569
643.00,87.2647
643.20,86.8822
643.40,86.7666
643.60,86.6662
643.80,87.6912
644.00,87.2375
644.20,87.4412
644.40,86.8325
644.60,86.6035
644.80,86.7315
645.00,87.1737
645.20,87.6423
645.40,87.3662
645.60,87.0198
645.80,86.6562
646.00,86.7955
646.20,87.0649
646.40,87.3621
646.60,87.1947
646.80,87.1893
647.00,86.7667
647.20,86.6138
647.40,86.7854
647.60,87.4427
647.80,87.6007
648.00,87.1775
648.20,86.7817
648.40,86.6730
648.60,86.8479
648.80,87.3208
649.00,87.8306
649.20,87.2058
649.40,86.7533
649.60,86.5334
649.80,86.5582
650.00,87.2167
650.20,87.3194
650.40,87.3547
650.60,86.9526
650.80,86.7504
651.00,86.5345
651.20,86.6587
651.40,87.2720
651.60,87.4746
651.80,87.1467
652.00,86.8161
652.20,86.7130
652.40,86.7552
652.60,87.1464
652.80,87.5237
653.00,87.3657
653.20,86.8220
653.40,86.4732
653.60,86.5756
653.80,86.8351
654.00,87.4475
654.20,87.4155
654.40,87.1255
654.60,86.7395
654.80,86.6055
655.00,86.5776
655.20,86.9418
655.40,87.4139
655.60,87.3893
655.80,87.1100
656.00,86.5750
656.20,86.4839
656.40,86.8342
656.60,87.2039
656.80,87.2778
657.00,86.9490
657.20,86.7949
657.40,86.3612
657.60,86.6900
657.80,87.0304
658.00,87.1386
658.20,87.0651
658.40,86.7168
658.60,86.6674
658.80,86.3732
659.00,86.6872
659.20,87.1582
659.40,87.0025
659.60,87.2400
659.80,86.7671
660.00,86.4026
660.20,86.2852
660.40,86.7273
660.60,86.9412
660.80,87.2419
661.00,86.9533
661.20,86.8921
661.40,86.2443
661.60,86.4556
661.80,86.7513
662.00,87.1931
662.20,87.1684
662.40,86.8754
662.60,86.3319
662.80,86.3192
663.00,86.4841
663.20,87.0314
663.40,86.9283
663.60,86.8160
663.80,86.5426
664.00,86.5521
664.20,86.3292
664.40,86.5974
664.60,86.8982
664.80,87.2730
665.00,86.8604
665.20,86.6945
665.40,86.0819
665.60,86.3729
665.80,86.7003
666.00,86.9845
666.20,87.3080
666.40,86.9941
666.60,86.2790
666.80,86.1438
667.00,86.2557
667.20,86.5341
667.40,86.9325
667.60,86.7259
667.80,86.2708
668.00,86.1577
668.20,86.0894
668.40,86.3310
668.60,86.6770
668.80,87.0278
669.00,86.5534
669.20,86.1761
669.40,86.1585
669.60,85.8510
669.80,86.0708
670.00,86.4407
670.20,86.5718
670.40,86.6370
670.60,86.2579
670.80,85.9046
671.00,85.8236
671.20,86.2905
671.40,86.7884
671.60,86.5237
671.80,86.5719
672.00,86.1602
672.20,85.8018
672.40,85.7954
672.60,86.3502
672.80,86.6466
673.00,86.5711
673.20,86.1837
673.40,85.8516
673.60,85.5814
673.80,86.0355
674.00,86.2756
674.20,86.4466
674.40,86.5092
674.60,86.0317
674.80,85.6063
675.00,85.7713
675.20,85.7785
675.40,86.2595
675.60,86.1491
675.80,86.1826
676.00,85.6363
676.20,85.4240
676.40,85.3322
676.60,85.7091
676.80,85.9765
677.00,86.0873
677.20,86.1353
677.40,85.4794
677.60,85.4384
677.80,85.2815
678.00,85.5041
678.20,86.1565
678.40,86.1424
678.60,86.0581
678.80,85.4999
679.00,85.1157
679.20,85.4968
679.40,85.3152
679.60,86.0192
679.80,86.0213
680.00,85.6671
680.20,85.2194
680.40,84.8283
680.60,84.9718
680.80,85.1485
681.00,85.8841
681.20,86.0236
681.40,85.8277
681.60,85.5070
681.80,84.7191
682.00,84.7411
682.20,85.3187
682.40,85.5468
682.60,85.8237
682.80,85.6120
683.00,84.9118
683.20,84.2888
683.40,84.4178
683.60,84.8404
683.80,85.3320
684.00,85.8998
684.20,85.3791
684.40,84.8799
684.60,84.6016
684.80,84.5189
685.00,84.7533
685.20,85.1744
685.40,85.2780
685.60,85.3752
685.80,84.9003
686.00,84.4059
686.20,84.1815
686.40,84.5148
686.60,84.9101
686.80,85.3946
687.00,85.0439
687.20,84.8366
687.40,84.3697
687.60,84.1213
687.80,84.1832
688.00,84.9263
688.20,85.3159
688.40,85.4915
688.60,84.6797
688.80,84.1481
689.00,83.8071
689.20,84.0061
689.40,84.4762
689.60,85.2711
689.80,84.7992
690.00,84.5205
690.20,83.8188
690.40,83.4482
690.60,83.6240
690.80,84.2830
691.00,85.0405
691.20,85.0895
691.40,84.8977
691.60,84.0710
691.80,83.6135
692.00,83.3741
692.20,83.5584
692.40,84.5731
692.60,84.9325
692.80,84.6991
693.00,84.2341
693.20,83.2500
693.40,82.8556
693.60,83.3023
693.80,83.8599
694.00,84.7220
694.20,84.8970
694.40,84.0727
694.60,83.9425
694.80,83.2330
695.00,83.1749
695.20,83.4538
695.40,84.2258
695.60,84.6151
695.80,84.5614
696.00,83.7020
696.20,83.1615
696.40,83.0121
696.60,83.2372
696.80,83.6698
697.00,84.4896
697.20,84.5747
697.40,83.8918
697.60,83.0604
697.80,82.7841
698.00,82.9879
698.20,83.7049
698.40,84.3129
698.60,84.4766
698.80,84.0169
699.00,83.2251
699.20,82.6042
699.40,82.3519
699.60,82.9489
699.80,83.6694
700.00,84.4181
700.20,84.5531
700.40,84.0005
700.60,83.1813
700.80,82.6274
701.00,82.8103
701.20,83.4279
701.40,84.2897
701.60,84.7478
701.80,84.4841
702.00,83.3925
702.20,82.6798
702.40,82.6025
702.60,82.9351
702.80,83.9254
703.00,84.5976
703.20,84.5387
703.40,84.1431
703.60,83.1180
703.80,82.4491
704.00,82.5888
704.20,83.4600
704.40,84.3223
704.60,84.6732
704.80,84.5546
705.00,83.5744
705.20,82.7187
705.40,82.6923
705.60,83.3276
705.80,84.3141
706.00,84.8396
706.20,84.7755
706.40,84.1133
706.60,83.2330
706.80,82.7662
707.00,82.8178
707.20,83.7868
707.40,84.3908
707.60,85.0207
707.80,84.6846
708.00,83.7368
708.20,83.0631
708.40,82.4686
708.60,83.2020
708.80,84.1827
709.00,84.7926
709.20,85.2216
709.40,84.3814
709.60,83.6264
709.80,82.8546
710.00,83.1065
710.20,83.6672
710.40,84.7089
710.60,85.1271
710.80,85.1465
711.00,84.4022
711.20,83.4137
711.40,82.9999
711.60,83.3384
711.80,84.1696
712.00,85.1037
712.20,85.5479
712.40,84.9217
712.60,83.9480
712.80,83.2516
713.00,83.0905
713.20,83.8332
713.40,84.7072
713.60,85.4594
713.80,85.4706
714.00,84.9115
714.20,83.9733
714.40,83.2831
714.60,83.4001
714.80,84.1576
715.00,85.0618
715.20,85.7406
715.40,85.5528
715.60,84.6239
715.80,83.9092
716.00,83.3137
716.20,83.7473
716.40,84.5816
716.60,85.5764
716.80,85.9549
717.00,85.5378
717.20,84.7709
717.40,83.8893
717.60,83.5397
717.80,83.8932
718.00,84.7888
718.20,85.7235
718.40,86.1693
718.60,85.4316
718.80,84.7446
719.00,83.8043
719.20,83.6617
719.40,84.2405
719.60,85.2215
719.80,86.0216
720.00,86.2068
720.20,85.6434
720.40,84.7326
720.60,83.9083
720.80,83.7340
721.00,84.5846
721.20,85.3530
721.40,86.5146
721.60,86.3248
721.80,85.5901
722.00,84.6363
722.20,83.9786
722.40,83.8578
722.60,84.7084
722.80,85.4061
723.00,86.3508
723.20,86.3045
723.40,85.6288
723.60,84.6942
723.80,83.8224
724.00,83.8493
724.20,84.5431
724.40,85.7626
724.60,86.3970
724.80,86.7108
725.00,85.7757
725.20,84.8636
725.40,84.1707
725.60,84.0519
725.80,85.1330
726.00,86.0330
726.20,86.6708
726.40,86.6645
726.60,86.0614
726.80,84.9864
727.00,84.3043
727.20,84.1556
727.40,84.9130
727.60,85.9000
727.80,86.8360
728.00,86.7326
728.20,86.1978
728.40,85.1914
728.60,84.4578
728.80,84.3291
729.00,84.8348
729.20,85.8318
729.40,86.8106
729.60,87.0045
729.80,86.4954
730.00,85.2775
730.20,84.5314
730.40,84.0722
730.60,84.8213
730.80,85.7820
731.00,86.6023
731.20,86.9014
731.40,86.5519
731.60,85.6682
731.80,84.6939
732.00,84.5890
732.20,84.6402
732.40,85.4554
732.60,86.4869
732.80,87.1362
733.00,86.9103
733.20,86.1027
733.40,85.2227
733.60,84.4934
733.80,84.6458
734.00,85.2015
734.20,86.4103
734.40,87.1116
734.60,87.0631
734.80,86.4121
735.00,85.6370
735.20,84.8477
735.40,84.5216
735.60,85.1048
735.80,86.1896
736.00,87.0268
736.20,87.4521
736.40,86.9729
736.60,86.0629
736.80,84.9979
737.00,84.5328
737.20,85.1435
737.40,85.7709
737.60,86.9621
737.80,87.2419
738.00,87.0711
738.20,86.3881
738.40,85.5037
738.60,84.7658
738.80,84.7095
739.00,85.7135
739.20,86.6762
739.40,87.3580
739.60,87.3713
739.80,86.9624
740.00,85.9672
740.20,84.9686
740.40,84.9443
740.60,85.1594
740.80,86.1827
741.00,87.0771
741.20,87.7203
741.40,87.3817
741.60,86.4591
741.80,85.5615
742.00,84.9952
742.20,85.1915
742.40,85.8829
742.60,87.1659
742.80,87.4419
743.00,87.4540
743.20,86.5967
743.40,85.6356
743.60,84.9766
743.80,84.9916
744.00,85.4689
744.20,86.7468
744.40,87.3393
744.60,87.6204
744.80,87.0115
745.00,86.1253
745.20,85.4553
745.40,85.0650
745.60,85.5733
745.80,86.7215
746.00,87.2575
746.20,88.1402
746.40,87.6710
746.60,87.0305
746.80,85.9051
747.00,85.1817
747.20,85.1260
747.40,85.9461
747.60,86.9863
747.80,87.7447
748.00,87.6781
748.20,87.3534
748.40,86.3208
748.60,85.5665
748.80,85.3225
749.00,85.5829
749.20,86.3381
749.40,87.4439
749.60,87.8595
749.80,87.5915
750.00,86.8830
750.20,86.1366
750.40,85.4471
750.60,85.4554
750.80,85.8129
751.00,87.0808
751.20,87.8225
751.40,87.7990
751.60,87.5994
751.80,86.9357
752.00,85.9050
752.20,85.2265
752.40,85.5314
752.60,86.6619
752.80,87.3114
753.00,88.2771
753.20,88.0832
753.40,87.3843
753.60,86.7005
753.80,85.7027
754.00,85.4601
754.20,86.0015
754.40,86.8124
754.60,87.6792
754.80,88.0157
755.00,87.9032
755.20,87.2856
755.40,86.2164
755.60,85.4874
755.80,85.6349
756.00,86.2547
756.20,87.1303
756.40,88.1994
756.60,88.0319
756.80,87.8808
757.00,87.0065
757.20,86.3606
757.40,85.6163
757.60,85.8021
757.80,86.6125
758.00,87.1436
758.20,88.5834
758.40,88.3665
758.60,87.7369
758.80,86.8264
759.00,85.9731
759.20,85.4488
759.40,85.8515
759.60,86.6450
759.80,87.4871
760.00,88.2517
760.20,88.4682
760.40,88.0898
760.60,86.8138
760.80,86.0737
761.00,85.5997
761.20,86.1885
761.40,86.8702
761.60,87.9548
761.80,88.4308
762.00,88.2298
762.20,88.0238
762.40,86.6642
762.60,86.0935
762.80,85.7909
763.00,85.9315
763.20,87.1227
763.40,88.0134
763.60,88.6731
763.80,88.2863
764.00,87.2723
764.20,86.5182
764.40,85.4891
764.60,85.3407
764.80,85.7355
765.00,86.7323
765.20,87.7797
765.40,88.5584
765.60,88.6683
765.80,88.0256
766.00,86.6374
766.20,85.7810
766.40,85.5219
766.60,85.8575
766.80,86.7786
767.00,87.8414
767.20,88.6958
767.40,88.7435
767.60,88.0551
767.80,86.8682
768.00,85.7926
768.20,85.5977
768.40,86.0614
768.60,86.7000
768.80,87.9964
769.00,89.0566
769.20,88.5557
769.40,88.1752
769.60,87.0543
769.80,86.1875
770.00,85.3666
770.20,85.6597
770.40,86.6839
770.60,88.1279
770.80,88.6957
771.00,88.7951
771.20,88.4061
771.40,87.0630
771.60,86.1808
771.80,85.6553
772.00,85.8236
772.20,86.5765
772.40,87.6338
772.60,88.5551
772.80,89.4896
773.00,88.6364
773.20,87.6224
773.40,86.4058
773.60,86.1328
773.80,85.7498
774.00,86.0566
774.20,87.8250
774.40,88.4655
774.60,89.6755
774.80,89.2208
775.00,88.2157
775.20,86.8532
775.40,85.9269
775.60,85.5872
775.80,86.1425
776.00,86.8076
776.20,88.5778
776.40,89.3230
776.60,89.2388
776.80,88.5915
777.00,87.4397
777.20,85.9188
777.40,86.0665
777.60,85.7843
777.80,86.8909
778.00,88.0984
778.20,89.5373
778.40,90.3225
778.60,89.0483
778.80,87.9312
779.00,86.7199
779.20,85.6540
779.40,85.6366
779.60,86.6797
779.80,87.7424
780.00,88.8849
780.20,89.6057
780.40,89.2944
780.60,88.1690
780.80,87.3549
781.00,86.0310
781.20,85.3871
781.40,85.9261
781.60,86.7273
781.80,88.4687
782.00,89.6402
782.20,89.3976
782.40,88.8829
782.60,87.9027
782.80,86.9189
783.00,85.7101
783.20,85.8861
783.40,86.6613
783.60,88.1094
783.80,89.0817
784.00,89.7220
784.20,89.4984
784.40,88.0119
784.60,86.9919
784.80,85.6578
785.00,85.4287
785.20,86.2777
785.40,87.4475
785.60,88.8595
785.80,89.8319
786.00,89.8125
786.20,88.8273
786.40,87.4421
786.60,86.0738
786.80,85.8664
787.00,85.7926
787.20,87.3774
787.40,88.9401
787.60,90.0839
787.80,89.8127
788.00,88.9448
788.20,87.1282
788.40,86.3040
788.60,85.7628
788.80,85.6190
789.00,86.7416
789.20,87.8159
789.40,89.6723
789.60,89.8781
789.80,89.9262
790.00,88.7237
790.20,87.1188
790.40,86.0820
790.60,85.8083
790.80,85.7437
791.00,87.2660
791.20,88.7297
791.40,89.6767
791.60,89.9356
791.80,89.5198
792.00,87.8286
792.20,86.2836
792.40,86.0178
792.60,85.8438
792.80,86.6256
793.00,88.0597
793.20,89.3571
793.40,89.9578
793.60,90.1236
793.80,89.2019
794.00,87.0613
794.20,85.8665
794.40,85.4340
794.60,85.4655
794.80,87.4550
795.00,88.7797
795.20,90.2592
795.40,90.1755
795.60,89.5705
795.80,88.4723
796.00,87.0062
796.20,85.4728
796.40,85.5925
796.60,86.2557
796.80,87.6284
797.00,89.5173
797.20,90.1830
797.40,90.4726
797.60,89.5385
797.80,88.2769
798.00,86.1124
798.20,85.4292
798.40,85.6260
798.60,86.7572
798.80,88.1814
799.00,89.5397
799.20,90.3756
799.40,89.9240
799.60,89.3556
799.80,87.8455
800.00,85.7858
