Batch,scan003_Quartz_%T_190_to_800.sre
EV300,140607
Data Mode,%T  None
Sample,Quartz_%T_190_to_800_after_ZB
Cycle,Cycle01
Date Collected,7/27/2016
Time Collected,2:32:03PM
Entries,Data Points
nm,%T
190.00,68.7707
190.20,68.6640
190.40,68.6456
190.60,68.9585
190.80,68.9785
191.00,69.0998
191.20,68.9687
191.40,69.1460
191.60,69.2478
191.80,69.4520
192.00,69.5657
192.20,69.7194
192.40,69.6090
192.60,69.8163
192.80,69.6932
193.00,69.8336
193.20,69.5280
193.40,70.0154
193.60,70.1753
193.80,70.1599
194.00,69.8931
194.20,69.9599
194.40,69.9166
194.60,70.3542
194.80,70.2322
195.00,70.4479
195.20,70.5900
195.40,70.6699
195.60,70.6101
195.80,70.5974
196.00,70.7877
196.20,70.6456
196.40,70.8386
196.60,70.7531
196.80,70.6019
197.00,70.8349
197.20,70.8532
197.40,70.9085
197.60,70.6426
197.80,70.8903
198.00,70.6098
198.20,71.0291
198.40,70.8661
198.60,71.2532
198.80,71.2317
199.00,71.3275
199.20,71.2722
199.40,71.4821
199.60,71.4626
199.80,71.4920
200.00,71.4138
200.20,71.5784
200.40,71.8079
200.60,71.8392
200.80,71.9679
201.00,71.8507
201.20,72.0886
201.40,72.2650
201.60,72.3546
201.80,72.3331
202.00,72.4928
202.20,72.5371
202.40,72.6118
202.60,72.8153
202.80,72.8236
203.00,72.9039
203.20,73.0580
203.40,73.1625
203.60,73.3528
203.80,73.3968
204.00,73.5817
204.20,73.6866
204.40,73.6670
204.60,73.8736
204.80,73.4941
205.00,74.1248
205.20,74.1652
205.40,74.3249
205.60,74.0880
205.80,74.4445
206.00,74.7848
206.20,74.9154
206.40,75.0681
206.60,75.0193
206.80,75.3513
207.00,75.5751
207.20,75.7297
207.40,75.5651
207.60,75.8990
207.80,75.9707
208.00,76.4419
208.20,76.2164
208.40,76.7323
208.60,76.6742
208.80,76.3966
209.00,77.2033
209.20,77.3958
209.40,77.4257
209.60,77.7696
209.80,77.9541
210.00,78.0799
210.20,78.0763
210.40,78.1271
210.60,78.6203
210.80,78.7291
211.00,78.9832
211.20,79.1470
211.40,79.0945
211.60,79.4523
211.80,79.7666
212.00,79.2088
212.20,79.8071
212.40,79.9844
212.60,80.3733
212.80,80.4641
213.00,80.6050
213.20,80.8614
213.40,80.8359
213.60,81.3153
213.80,81.7157
214.00,81.5107
214.20,81.9265
214.40,82.0775
214.60,82.0353
214.80,82.5233
215.00,82.6044
215.20,82.6360
215.40,82.7482
215.60,82.9979
215.80,83.0073
216.00,83.2536
216.20,83.4618
216.40,83.5202
216.60,83.7514
216.80,83.9640
217.00,84.1533
217.20,84.2858
217.40,84.3980
217.60,84.7071
217.80,84.9594
218.00,84.7399
218.20,85.1453
218.40,85.1979
218.60,85.4464
218.80,84.6693
219.00,85.3750
219.20,85.5266
219.40,85.7342
219.60,85.9256
219.80,86.0935
220.00,86.1396
220.20,86.3487
220.40,86.3207
220.60,86.2339
220.80,86.5381
221.00,86.5204
221.20,86.6351
221.40,86.7851
221.60,86.8070
221.80,86.9528
222.00,87.0503
222.20,87.1458
222.40,86.9994
222.60,87.2464
222.80,87.4119
223.00,86.9617
223.20,86.9868
223.40,87.1284
223.60,87.2968
223.80,87.2453
224.00,87.2938
224.20,87.3140
224.40,87.5203
224.60,87.4418
224.80,87.1382
225.00,87.3672
225.20,87.6015
225.40,87.5675
225.60,87.6821
225.80,87.7178
226.00,87.7105
226.20,87.6122
226.40,87.7047
226.60,87.8662
226.80,87.2451
227.00,87.9254
227.20,87.9570
227.40,87.8994
227.60,87.8571
227.80,87.8899
228.00,87.8743
228.20,87.8048
228.40,87.7283
228.60,87.7672
228.80,87.7848
229.00,87.6360
229.20,87.8090
229.40,87.7682
229.60,87.9483
229.80,88.0362
230.00,88.0444
230.20,88.1107
230.40,88.0127
230.60,88.0619
230.80,88.0563
231.00,87.8883
231.20,87.9175
231.40,87.9792
231.60,87.9213
231.80,87.6197
232.00,87.9056
232.20,87.7917
232.40,87.8960
232.60,87.9641
232.80,87.6586
233.00,87.9007
233.20,87.8171
233.40,87.6503
233.60,87.5891
233.80,87.4825
234.00,87.5920
234.20,87.7800
234.40,87.5474
234.60,87.6069
234.80,87.5081
235.00,87.4089
235.20,87.4991
235.40,87.5612
235.60,87.5239
235.80,87.6604
236.00,86.9509
236.20,87.4189
236.40,87.5709
236.60,87.3616
236.80,87.3193
237.00,87.4513
237.20,87.2024
237.40,87.5380
237.60,87.3695
237.80,87.3610
238.00,87.4637
238.20,87.1950
238.40,87.0686
238.60,87.3268
238.80,87.3055
239.00,87.0527
239.20,87.1289
239.40,87.2248
239.60,87.2552
239.80,86.9901
240.00,87.1845
240.20,87.1888
240.40,87.0854
240.60,87.0333
240.80,87.0381
241.00,87.1401
241.20,87.1129
241.40,87.0782
241.60,87.1432
241.80,87.2729
242.00,87.1864
242.20,87.1138
242.40,87.1544
242.60,87.1229
242.80,87.2606
243.00,87.3651
243.20,87.4919
243.40,87.4065
243.60,87.4985
243.80,87.5929
244.00,87.6032
244.20,87.6654
244.40,87.7102
244.60,87.8419
244.80,87.7718
245.00,87.7913
245.20,87.8406
245.40,87.9740
245.60,87.9609
245.80,88.0224
246.00,88.0075
246.20,88.0626
246.40,88.1153
246.60,88.1933
246.80,88.0033
247.00,88.1775
247.20,88.2127
247.40,88.4459
247.60,88.4152
247.80,88.5692
248.00,88.7380
248.20,88.8266
248.40,88.8618
248.60,88.9166
248.80,89.0660
249.00,88.9360
249.20,89.1030
249.40,89.0344
249.60,89.3006
249.80,88.8524
250.00,89.3478
250.20,89.5891
250.40,89.5368
250.60,89.7399
250.80,89.6755
251.00,89.8141
251.20,89.7778
251.40,89.8825
251.60,89.8253
251.80,90.0045
252.00,89.9999
252.20,89.9870
252.40,90.0560
252.60,90.2139
252.80,90.3817
253.00,90.4236
253.20,90.3604
253.40,90.5299
253.60,90.8443
253.80,90.7473
254.00,90.8370
254.20,90.8473
254.40,90.7151
254.60,91.0246
254.80,91.0844
255.00,91.0571
255.20,91.0502
255.40,91.0607
255.60,91.3006
255.80,91.1436
256.00,91.2845
256.20,91.3518
256.40,91.3471
256.60,91.3455
256.80,91.3787
257.00,91.4682
257.20,91.6314
257.40,91.5332
257.60,91.6029
257.80,91.6033
258.00,91.7831
258.20,91.7879
258.40,91.8950
258.60,91.7515
258.80,91.9710
259.00,91.8780
259.20,91.7903
259.40,91.8969
259.60,91.8437
259.80,91.8071
260.00,91.9041
260.20,91.9871
260.40,91.9808
260.60,92.1652
260.80,92.1295
261.00,92.2921
261.20,92.3997
261.40,92.4214
261.60,92.4334
261.80,92.4251
262.00,92.5525
262.20,92.6420
262.40,92.5919
262.60,92.4674
262.80,92.5618
263.00,92.6068
263.20,92.5228
263.40,92.8463
263.60,92.6787
263.80,92.7774
264.00,92.7969
264.20,92.8426
264.40,92.7944
264.60,92.6861
264.80,92.9867
265.00,92.7661
265.20,92.8121
265.40,92.8093
265.60,92.9015
265.80,92.6468
266.00,92.8545
266.20,92.8275
266.40,92.8760
266.60,92.8827
266.80,92.7952
267.00,92.8702
267.20,92.7333
267.40,93.1616
267.60,93.0188
267.80,92.8722
268.00,92.9989
268.20,92.8088
268.40,93.0292
268.60,93.1442
268.80,93.0572
269.00,93.2661
269.20,92.9666
269.40,93.2629
269.60,93.0051
269.80,93.2041
270.00,93.1499
270.20,93.2467
270.40,93.1113
270.60,93.2350
270.80,93.1372
271.00,93.1064
271.20,93.1597
271.40,93.2821
271.60,93.3093
271.80,93.3526
272.00,93.3661
272.20,93.3235
272.40,93.3743
272.60,93.4633
272.80,93.3625
273.00,93.3035
273.20,93.1272
273.40,93.3286
273.60,93.3156
273.80,93.1766
274.00,93.4009
274.20,93.4240
274.40,93.3468
274.60,93.3822
274.80,93.3928
275.00,93.1871
275.20,93.3652
275.40,93.5370
275.60,93.4167
275.80,93.5447
276.00,93.4220
276.20,93.3820
276.40,93.6285
276.60,93.6083
276.80,93.5532
277.00,93.7654
277.20,93.4164
277.40,93.6776
277.60,93.5539
277.80,93.5444
278.00,93.6449
278.20,93.5708
278.40,93.4503
278.60,93.6031
278.80,93.6323
279.00,93.5829
279.20,93.5690
279.40,93.7173
279.60,93.5434
279.80,93.5695
280.00,93.8172
280.20,93.6292
280.40,93.5913
280.60,93.7604
280.80,93.6501
281.00,93.6714
281.20,94.0018
281.40,93.6648
281.60,93.6880
281.80,93.6803
282.00,93.7141
282.20,93.5877
282.40,93.8875
282.60,93.9154
282.80,93.9024
283.00,93.7815
283.20,93.9065
283.40,93.9615
283.60,93.8948
283.80,93.7713
284.00,93.7770
284.20,93.9403
284.40,93.6352
284.60,93.7875
284.80,93.6553
285.00,93.8650
285.20,94.0944
285.40,93.9000
285.60,93.7986
285.80,93.7017
286.00,93.8151
286.20,93.9596
286.40,93.8940
286.60,93.7025
286.80,94.0155
287.00,93.7577
287.20,93.7915
287.40,93.7317
287.60,93.8644
287.80,94.1290
288.00,93.9784
288.20,94.0710
288.40,93.9934
288.60,93.9622
288.80,93.9990
289.00,93.8466
289.20,93.8353
289.40,93.5838
289.60,94.0993
289.80,94.0348
290.00,94.0217
290.20,94.0540
290.40,94.0283
290.60,94.0585
290.80,94.0757
291.00,94.0208
291.20,94.0889
291.40,93.9326
291.60,94.2798
291.80,94.1824
292.00,94.0689
292.20,94.2764
292.40,94.2559
292.60,94.2195
292.80,94.2707
293.00,93.9977
293.20,94.3201
293.40,94.2112
293.60,94.3263
293.80,94.1734
294.00,94.2376
294.20,94.3724
294.40,94.2091
294.60,94.3059
294.80,94.6656
295.00,94.6033
295.20,94.4709
295.40,94.3904
295.60,94.3072
295.80,94.4257
296.00,94.3204
296.20,93.7137
296.40,94.2866
296.60,94.2969
296.80,93.7548
297.00,94.1956
297.20,94.4029
297.40,94.1970
297.60,94.3645
297.80,94.3740
298.00,94.2418
298.20,94.5405
298.40,94.3973
298.60,94.1429
298.80,94.3070
299.00,94.1310
299.20,94.3593
299.40,94.4458
299.60,94.2609
299.80,94.3414
300.00,94.3884
300.20,94.1802
300.40,94.1648
300.60,94.3851
300.80,94.6375
301.00,94.4968
301.20,94.3855
301.40,94.5615
301.60,94.3836
301.80,94.2637
302.00,94.1902
302.20,94.3429
302.40,94.3459
302.60,94.6625
302.80,94.3371
303.00,94.6218
303.20,94.3812
303.40,93.7825
303.60,94.3487
303.80,94.5286
304.00,94.3957
304.20,94.5421
304.40,94.2741
304.60,94.5511
304.80,94.4682
305.00,94.3286
305.20,94.3607
305.40,94.6301
305.60,94.4187
305.80,94.6202
306.00,94.4956
306.20,94.0422
306.40,94.3662
306.60,94.5907
306.80,94.4436
307.00,94.3298
307.20,94.4530
307.40,94.4210
307.60,94.4946
307.80,94.2764
308.00,94.5802
308.20,94.7423
308.40,94.3268
308.60,94.3382
308.80,94.3580
309.00,94.6035
309.20,94.3855
309.40,94.4960
309.60,94.5823
309.80,94.5502
310.00,94.3448
310.20,94.5603
310.40,94.5512
310.60,94.4543
310.80,94.5413
311.00,94.6232
311.20,94.4582
311.40,94.3618
311.60,94.3887
311.80,94.2899
312.00,94.5496
312.20,94.5577
312.40,94.2896
312.60,94.6103
312.80,94.5860
313.00,94.3209
313.20,94.5826
313.40,94.6217
313.60,94.4265
313.80,94.8191
314.00,94.5319
314.20,94.6887
314.40,94.7391
314.60,94.5520
314.80,94.7340
315.00,94.6317
315.20,94.9188
315.40,94.7036
315.60,94.7337
315.80,94.7211
316.00,94.7807
316.20,94.7782
316.40,94.6436
316.60,94.7395
316.80,94.6810
317.00,94.5462
317.20,94.5021
317.40,94.8180
317.60,94.7241
317.80,94.5358
318.00,94.8858
318.20,94.6989
318.40,94.7323
318.60,94.1647
318.80,94.7663
319.00,94.6488
319.20,94.4141
319.40,94.8465
319.60,94.7637
319.80,94.8317
320.00,94.8335
320.20,94.8475
320.40,94.8239
320.60,94.7133
320.80,94.8140
321.00,94.7697
321.20,94.9023
321.40,94.8419
321.60,94.8256
321.80,94.6227
322.00,94.8498
322.20,94.8964
322.40,94.9292
322.60,94.6997
322.80,94.6714
323.00,94.7876
323.20,94.8365
323.40,94.6842
323.60,95.0521
323.80,94.9874
324.00,95.1254
324.20,94.9526
324.40,94.9533
324.60,95.0041
324.80,94.9296
325.00,95.0812
325.20,95.0901
325.40,94.9825
325.60,94.9253
325.80,94.7042
326.00,95.0279
326.20,94.9761
326.40,95.0533
326.60,94.9421
326.80,94.9644
327.00,94.8813
327.20,94.9571
327.40,94.8901
327.60,95.0016
327.80,95.0894
328.00,95.0666
328.20,95.0476
328.40,95.0177
328.60,94.9481
328.80,94.9570
329.00,94.9231
329.20,95.0304
329.40,95.0262
329.60,95.0202
329.80,95.2058
330.00,94.9869
330.20,95.0421
330.40,94.8730
330.60,95.0330
330.80,94.9794
331.00,95.2191
331.20,94.7868
331.40,94.9665
331.60,95.0947
331.80,95.1533
332.00,94.8508
332.20,95.0596
332.40,94.9804
332.60,95.1221
332.80,95.1685
333.00,95.0811
333.20,95.2520
333.40,95.1412
333.60,95.2612
333.80,94.9741
334.00,95.3417
334.20,95.1609
334.40,95.0898
334.60,95.2810
334.80,94.9652
335.00,95.0909
335.20,95.1403
335.40,95.1627
335.60,95.0952
335.80,95.0028
336.00,95.1564
336.20,94.9893
336.40,95.0446
336.60,95.0782
336.80,95.0363
337.00,94.9163
337.20,95.2324
337.40,95.1279
337.60,95.2245
337.80,94.9824
338.00,95.0597
338.20,95.0496
338.40,95.2627
338.60,95.2692
338.80,95.2155
339.00,95.3750
339.20,95.2562
339.40,95.2576
339.60,95.2719
339.80,95.1431
340.00,95.1352
340.20,95.2409
340.40,95.1728
340.60,94.9585
340.80,95.1343
341.00,95.0303
341.20,95.1645
341.40,95.2399
341.60,95.0016
341.80,95.1530
342.00,95.1180
342.20,94.9299
342.40,95.1547
342.60,95.0815
342.80,95.1808
343.00,95.2681
343.20,95.1748
343.40,95.1740
343.60,95.2200
343.80,95.1729
344.00,95.2645
344.20,95.2650
344.40,95.2618
344.60,95.1146
344.80,95.1518
345.00,95.5008
345.20,95.0641
345.40,95.3865
345.60,95.2993
345.80,95.4633
346.00,95.3075
346.20,95.2775
346.40,95.3072
346.60,95.2812
346.80,95.2600
347.00,95.3704
347.20,95.4228
347.40,95.4669
347.60,95.3358
347.80,95.2685
348.00,95.3558
348.20,95.4016
348.40,95.3237
348.60,95.3801
348.80,95.4315
349.00,95.4349
349.20,95.2664
349.40,95.3618
349.60,95.2204
349.80,95.4258
350.00,95.3842
350.20,95.1666
350.40,95.4180
350.60,95.3166
350.80,95.4567
351.00,95.3169
351.20,95.3840
351.40,95.5800
351.60,95.3224
351.80,95.4103
352.00,95.5147
352.20,95.3379
352.40,95.2898
352.60,95.4280
352.80,95.5993
353.00,95.4276
353.20,95.3985
353.40,95.3090
353.60,95.4196
353.80,95.5087
354.00,95.3779
354.20,95.7125
354.40,95.3774
354.60,95.6538
354.80,95.6712
355.00,95.5335
355.20,95.5815
355.40,95.5194
355.60,95.5968
355.80,95.6503
356.00,95.7605
356.20,95.7136
356.40,95.6103
356.60,95.4785
356.80,95.5495
357.00,95.7409
357.20,95.4646
357.40,95.5789
357.60,95.5552
357.80,95.6186
358.00,95.8569
358.20,95.7108
358.40,95.7586
358.60,95.8430
358.80,95.7518
359.00,95.8456
359.20,95.7278
359.40,95.6079
359.60,95.1012
359.80,95.5737
360.00,95.8079
360.20,95.6677
360.40,95.6586
360.60,95.6490
360.80,95.6743
361.00,95.7791
361.20,95.6438
361.40,95.8436
361.60,95.8136
361.80,95.8111
362.00,95.7599
362.20,96.0493
362.40,95.7773
362.60,95.8513
362.80,95.8790
363.00,95.7270
363.20,96.0914
363.40,95.6410
363.60,95.8120
363.80,95.9295
364.00,95.6375
364.20,95.7995
364.40,95.6387
364.60,95.3862
364.80,95.7393
365.00,95.6040
365.20,95.7690
365.40,95.6760
365.60,95.6373
365.80,95.6423
366.00,95.7765
366.20,95.7637
366.40,95.6397
366.60,95.7719
366.80,95.5871
367.00,95.8165
367.20,95.7180
367.40,95.6210
367.60,95.2383
367.80,95.6307
368.00,95.8820
368.20,95.8178
368.40,95.9205
368.60,95.7545
368.80,95.6460
369.00,95.8604
369.20,95.6315
369.40,95.6535
369.60,95.7599
369.80,95.5873
370.00,95.6242
370.20,95.6370
370.40,95.6949
370.60,95.6613
370.80,95.9453
371.00,96.0362
371.20,95.7339
371.40,95.7757
371.60,95.7888
371.80,95.6997
372.00,95.6020
372.20,95.7875
372.40,95.9271
372.60,96.1463
372.80,95.8897
373.00,96.0112
373.20,95.8758
373.40,95.8689
373.60,95.6931
373.80,95.8928
374.00,95.7613
374.20,95.7879
374.40,95.8472
374.60,96.0336
374.80,95.8602
375.00,95.5676
375.20,96.1490
375.40,95.8216
375.60,96.0467
375.80,95.9979
376.00,96.0535
376.20,95.9921
376.40,95.9748
376.60,95.9154
376.80,96.1516
377.00,96.0530
377.20,96.1582
377.40,96.1863
377.60,96.2426
377.80,96.1758
378.00,96.3295
378.20,96.0777
378.40,96.2274
378.60,95.9240
378.80,96.1060
379.00,96.0507
379.20,95.8133
379.40,96.1471
379.60,95.5172
379.80,96.0790
380.00,95.9344
380.20,96.0993
380.40,95.9713
380.60,96.2224
380.80,96.0466
381.00,96.0984
381.20,95.8511
381.40,95.9809
381.60,96.0301
381.80,96.0008
382.00,96.0335
382.20,96.0923
382.40,95.9261
382.60,96.0585
382.80,96.3164
383.00,95.9440
383.20,96.1474
383.40,96.0434
383.60,96.1717
383.80,96.1170
384.00,96.4029
384.20,95.9534
384.40,96.1973
384.60,95.9905
384.80,96.2447
385.00,96.2109
385.20,95.9705
385.40,96.0679
385.60,95.7478
385.80,95.8489
386.00,96.1633
386.20,96.1846
386.40,96.2871
386.60,96.0223
386.80,96.1486
387.00,96.2753
387.20,96.3481
387.40,96.1694
387.60,96.3671
387.80,96.1688
388.00,96.5933
388.20,96.5233
388.40,96.3797
388.60,96.3447
388.80,96.3709
389.00,96.3880
389.20,96.3629
389.40,96.3569
389.60,96.1580
389.80,96.2074
390.00,96.4117
390.20,96.2054
390.40,96.2703
390.60,96.3164
390.80,96.3903
391.00,96.2714
391.20,96.3618
391.40,96.0518
391.60,96.7307
391.80,96.2380
392.00,96.3368
392.20,96.5708
392.40,96.1274
392.60,96.4809
392.80,96.3868
393.00,96.4448
393.20,96.5042
393.40,96.4091
393.60,96.3660
393.80,96.5287
394.00,96.2901
394.20,96.3244
394.40,96.4626
394.60,96.3312
394.80,96.3280
395.00,96.3200
395.20,95.7719
395.40,96.2294
395.60,96.3940
395.80,96.3435
396.00,96.3167
396.20,96.5602
396.40,96.4790
396.60,96.2671
396.80,96.2690
397.00,96.2915
397.20,96.4139
397.40,96.2626
397.60,96.4536
397.80,96.4647
398.00,96.4187
398.20,96.1521
398.40,96.4560
398.60,96.5204
398.80,96.3728
399.00,96.2425
399.20,96.4239
399.40,96.2276
399.60,96.2308
399.80,96.4325
400.00,96.6114
400.20,96.4189
400.40,96.4478
400.60,96.4165
400.80,96.6206
401.00,96.3957
401.20,96.4683
401.40,96.5824
401.60,96.4442
401.80,96.2466
402.00,96.4256
402.20,96.4499
402.40,96.5748
402.60,96.5895
402.80,96.6002
403.00,96.3920
403.20,96.4632
403.40,96.4262
403.60,96.4544
403.80,96.4528
404.00,96.4741
404.20,96.4689
404.40,96.4817
404.60,96.2807
404.80,96.6209
405.00,96.6893
405.20,96.5726
405.40,96.5406
405.60,96.5918
405.80,96.8014
406.00,96.5434
406.20,96.4188
406.40,96.5502
406.60,96.6342
406.80,96.5053
407.00,96.4652
407.20,96.4898
407.40,96.6327
407.60,96.7361
407.80,96.5783
408.00,95.9311
408.20,96.7850
408.40,96.4727
408.60,96.6759
408.80,96.5805
409.00,96.5407
409.20,96.5282
409.40,96.6465
409.60,96.4966
409.80,96.5387
410.00,96.6182
410.20,96.5516
410.40,96.6844
410.60,96.7198
410.80,96.6570
411.00,96.6469
411.20,96.7598
411.40,96.4713
411.60,96.6158
411.80,96.6415
412.00,96.5196
412.20,96.4157
412.40,95.9574
412.60,96.6376
412.80,96.5847
413.00,96.6224
413.20,96.5688
413.40,96.4362
413.60,96.5016
413.80,96.7699
414.00,96.4112
414.20,96.8014
414.40,96.6263
414.60,96.6996
414.80,96.6402
415.00,96.7056
415.20,96.6688
415.40,96.7556
415.60,96.5083
415.80,96.9337
416.00,96.6371
416.20,96.8474
416.40,96.6136
416.60,96.6515
416.80,96.5187
417.00,96.4726
417.20,96.7206
417.40,96.5133
417.60,96.5584
417.80,96.5662
418.00,96.4288
418.20,96.3042
418.40,96.5759
418.60,96.6659
418.80,96.5303
419.00,96.5806
419.20,96.5500
419.40,96.3616
419.60,96.4275
419.80,96.5239
420.00,96.5190
420.20,96.6334
420.40,96.4882
420.60,96.5836
420.80,96.4549
421.00,96.1292
421.20,96.3700
421.40,96.4910
421.60,96.5589
421.80,96.5445
422.00,96.7085
422.20,96.7629
422.40,96.6379
422.60,96.5921
422.80,96.6877
423.00,96.2700
423.20,96.6172
423.40,96.5936
423.60,96.6950
423.80,96.6424
424.00,96.5709
424.20,96.5066
424.40,96.5869
424.60,96.6367
424.80,96.5919
425.00,96.5017
425.20,96.5305
425.40,96.5660
425.60,96.6396
425.80,96.6944
426.00,96.6907
426.20,96.7700
426.40,96.6896
426.60,96.6622
426.80,96.6033
427.00,96.5684
427.20,96.6852
427.40,96.7868
427.60,96.7817
427.80,96.2816
428.00,96.6044
428.20,96.8510
428.40,96.8402
428.60,96.8284
428.80,96.8084
429.00,96.6518
429.20,96.6361
429.40,96.7060
429.60,96.8288
429.80,96.4884
430.00,96.8428
430.20,96.8648
430.40,96.7626
430.60,96.7342
430.80,96.5275
431.00,96.5849
431.20,96.7203
431.40,96.7194
431.60,96.7781
431.80,96.7308
432.00,96.7400
432.20,96.5435
432.40,96.9480
432.60,96.7369
432.80,96.7586
433.00,96.4030
433.20,96.7434
433.40,96.4774
433.60,96.6256
433.80,96.6178
434.00,96.7488
434.20,96.5849
434.40,96.6862
434.60,96.7208
434.80,96.6144
435.00,96.7013
435.20,96.8466
435.40,96.6478
435.60,96.9049
435.80,96.8001
436.00,96.9141
436.20,96.8842
436.40,96.7914
436.60,96.8998
436.80,96.6403
437.00,96.8552
437.20,96.7691
437.40,96.7907
437.60,96.4181
437.80,96.6545
438.00,96.9212
438.20,96.6847
438.40,96.9989
438.60,96.7956
438.80,96.6000
439.00,96.7708
439.20,96.6852
439.40,96.7618
439.60,96.7788
439.80,96.7442
440.00,96.6662
440.20,96.8052
440.40,96.6591
440.60,96.7290
440.80,96.5827
441.00,96.8382
441.20,96.7254
441.40,96.7777
441.60,96.6600
441.80,96.9887
442.00,97.0431
442.20,96.7940
442.40,96.9794
442.60,96.8269
442.80,97.0162
443.00,96.9064
443.20,96.8646
443.40,96.9110
443.60,96.8717
443.80,96.8456
444.00,96.7977
444.20,96.8163
444.40,96.8962
444.60,96.8967
444.80,96.8648
445.00,96.8828
445.20,96.7776
445.40,96.7858
445.60,96.7381
445.80,96.8233
446.00,96.7192
446.20,96.7497
446.40,96.8961
446.60,96.7152
446.80,96.9628
447.00,96.7996
447.20,96.7568
447.40,96.8820
447.60,96.8259
447.80,96.7454
448.00,96.7757
448.20,96.9865
448.40,96.9572
448.60,96.9175
448.80,97.0526
449.00,96.9663
449.20,96.8421
449.40,96.9894
449.60,96.9241
449.80,96.7333
450.00,96.5951
450.20,96.7402
450.40,96.7404
450.60,97.1080
450.80,96.9882
451.00,96.8220
451.20,96.9575
451.40,97.0543
451.60,97.2053
451.80,96.8286
452.00,97.0052
452.20,96.8171
452.40,96.8741
452.60,96.7322
452.80,96.9457
453.00,96.8765
453.20,96.7331
453.40,96.9128
453.60,96.8381
453.80,97.0029
454.00,96.8924
454.20,96.7965
454.40,96.9406
454.60,96.8115
454.80,96.7534
455.00,96.7172
455.20,96.6104
455.40,96.6925
455.60,96.8653
455.80,96.7971
456.00,96.7712
456.20,96.7886
456.40,96.7427
456.60,96.7661
456.80,96.8080
457.00,96.9276
457.20,96.9072
457.40,96.7782
457.60,96.7277
457.80,96.7971
458.00,96.9141
458.20,96.7065
458.40,96.8735
458.60,96.6745
458.80,96.8693
459.00,96.7450
459.20,96.9088
459.40,96.7687
459.60,96.7259
459.80,96.8171
460.00,96.8391
460.20,96.7894
460.40,96.5584
460.60,96.9406
460.80,96.6850
461.00,97.0551
461.20,96.9201
461.40,97.0275
461.60,97.0279
461.80,96.8978
462.00,96.7423
462.20,96.8078
462.40,96.9614
462.60,97.1014
462.80,96.8194
463.00,97.0779
463.20,96.9272
463.40,96.8828
463.60,97.0651
463.80,97.0646
464.00,97.0869
464.20,96.8886
464.40,97.0344
464.60,97.0146
464.80,97.0782
465.00,96.9475
465.20,97.1217
465.40,97.1557
465.60,96.8158
465.80,97.1937
466.00,96.7892
466.20,96.9164
466.40,96.8839
466.60,97.0524
466.80,96.9303
467.00,96.9905
467.20,97.1356
467.40,97.0202
467.60,97.0534
467.80,97.1113
468.00,96.9449
468.20,97.0153
468.40,96.8780
468.60,97.1600
468.80,97.0283
469.00,97.0464
469.20,96.8923
469.40,96.9364
469.60,97.0312
469.80,97.1763
470.00,96.9708
470.20,96.7937
470.40,97.0927
470.60,97.1436
470.80,97.0098
471.00,97.0965
471.20,96.9390
471.40,97.0835
471.60,96.9570
471.80,97.0248
472.00,96.9405
472.20,97.2508
472.40,97.1981
472.60,96.9541
472.80,97.0720
473.00,97.0789
473.20,97.2381
473.40,97.0462
473.60,97.1407
473.80,97.2022
474.00,97.1901
474.20,97.0830
474.40,97.0639
474.60,97.1329
474.80,97.1167
475.00,97.1349
475.20,97.3076
475.40,97.2247
475.60,97.2340
475.80,97.1642
476.00,97.1559
476.20,97.1683
476.40,97.1922
476.60,97.1538
476.80,97.1466
477.00,97.3040
477.20,97.2090
477.40,97.2908
477.60,97.2932
477.80,97.2392
478.00,97.1537
478.20,97.1218
478.40,97.0974
478.60,97.1821
478.80,97.2357
479.00,97.2332
479.20,97.2362
479.40,97.2348
479.60,97.3062
479.80,97.0765
480.00,97.3806
480.20,97.1436
480.40,97.1277
480.60,97.3522
480.80,97.0922
481.00,97.2324
481.20,97.1639
481.40,97.1778
481.60,97.3349
481.80,97.2062
482.00,97.3059
482.20,97.2253
482.40,96.8171
482.60,97.1287
482.80,97.2835
483.00,97.1852
483.20,97.2093
483.40,97.2087
483.60,97.0061
483.80,96.8045
484.00,96.8756
484.20,96.8137
484.40,96.8938
484.60,96.9898
484.80,97.1083
485.00,97.1426
485.20,97.2841
485.40,97.3019
485.60,97.2537
485.80,97.3944
486.00,97.3626
486.20,97.2571
486.40,97.2607
486.60,97.1579
486.80,97.0140
487.00,96.5790
487.20,97.1625
487.40,97.1085
487.60,97.0594
487.80,97.1043
488.00,97.0444
488.20,97.1840
488.40,97.1833
488.60,97.2343
488.80,97.2652
489.00,97.1777
489.20,97.2497
489.40,97.3226
489.60,97.2639
489.80,97.2696
490.00,97.2971
490.20,97.2375
490.40,97.3198
490.60,97.4168
490.80,97.3192
491.00,97.3340
491.20,97.0481
491.40,97.0423
491.60,97.1132
491.80,96.5537
492.00,97.1763
492.20,97.1526
492.40,97.1015
492.60,97.3299
492.80,97.4052
493.00,97.3829
493.20,97.4836
493.40,97.4004
493.60,97.2569
493.80,97.3622
494.00,97.3533
494.20,97.2715
494.40,97.3106
494.60,97.5687
494.80,97.2844
495.00,97.2215
495.20,97.3126
495.40,97.4804
495.60,97.2831
495.80,96.9754
496.00,97.3303
496.20,97.2905
496.40,97.3165
496.60,97.0522
496.80,97.2689
497.00,97.3460
497.20,97.2605
497.40,97.3337
497.60,97.3264
497.80,97.5592
498.00,97.2489
498.20,97.2540
498.40,97.3528
498.60,97.2998
498.80,97.2756
499.00,97.2311
499.20,97.2920
499.40,97.2304
499.60,97.4105
499.80,97.4233
500.00,97.2754
500.20,97.1056
500.40,97.4062
500.60,97.4242
500.80,97.4069
501.00,97.5738
501.20,97.3463
501.40,97.2889
501.60,97.2662
501.80,97.1798
502.00,97.0681
502.20,97.2112
502.40,97.3502
502.60,97.0664
502.80,97.3204
503.00,97.3951
503.20,97.4352
503.40,97.4942
503.60,97.2652
503.80,97.5654
504.00,97.2737
504.20,97.2620
504.40,97.3459
504.60,97.1026
504.80,97.5387
505.00,97.4007
505.20,97.5561
505.40,97.3715
505.60,97.4816
505.80,97.4477
506.00,97.1817
506.20,97.2773
506.40,97.2965
506.60,97.3773
506.80,97.4499
507.00,97.0899
507.20,97.3727
507.40,97.3703
507.60,97.4688
507.80,96.7961
508.00,97.4435
508.20,97.4354
508.40,97.4445
508.60,97.2924
508.80,97.3478
509.00,97.2527
509.20,97.1605
509.40,97.6004
509.60,97.2202
509.80,97.4572
510.00,97.1492
510.20,97.5413
510.40,97.4348
510.60,97.3885
510.80,97.3710
511.00,97.6018
511.20,97.3682
511.40,97.5519
511.60,97.6856
511.80,97.5046
512.00,97.4264
512.20,97.4114
512.40,97.3542
512.60,97.5096
512.80,97.3594
513.00,97.3425
513.20,97.6163
513.40,97.3551
513.60,97.4858
513.80,97.6889
514.00,97.5123
514.20,97.4459
514.40,97.6452
514.60,97.5572
514.80,97.6401
515.00,97.4795
515.20,97.5533
515.40,97.5607
515.60,97.5517
515.80,97.4709
516.00,97.2516
516.20,97.3246
516.40,97.7022
516.60,97.4679
516.80,97.4320
517.00,97.5667
517.20,97.3450
517.40,97.6575
517.60,97.3901
517.80,97.3677
518.00,97.4942
518.20,97.3541
518.40,97.4000
518.60,97.5629
518.80,97.3850
519.00,97.5728
519.20,97.4830
519.40,97.2711
519.60,97.5952
519.80,97.6021
520.00,97.5666
520.20,97.4611
520.40,97.5734
520.60,97.5789
520.80,97.6229
521.00,97.4554
521.20,97.6149
521.40,97.6765
521.60,97.5319
521.80,97.4435
522.00,97.6350
522.20,97.7262
522.40,97.7406
522.60,97.5682
522.80,97.5331
523.00,97.5572
523.20,97.6308
523.40,97.6302
523.60,97.5276
523.80,97.6487
524.00,97.6878
524.20,97.6339
524.40,97.7149
524.60,97.6995
524.80,97.4434
525.00,97.4766
525.20,97.5448
525.40,97.6984
525.60,97.5697
525.80,97.5231
526.00,97.6921
526.20,97.6130
526.40,97.7218
526.60,97.5980
526.80,97.6182
527.00,97.6470
527.20,97.8025
527.40,97.6230
527.60,97.6352
527.80,97.7337
528.00,97.6359
528.20,97.5679
528.40,97.6632
528.60,97.3974
528.80,97.4476
529.00,97.3431
529.20,97.3890
529.40,97.3647
529.60,97.6890
529.80,97.8041
530.00,97.7002
530.20,97.8829
530.40,97.5870
530.60,97.8475
530.80,97.5959
531.00,97.7550
531.20,97.9008
531.40,97.7391
531.60,97.7610
531.80,97.9949
532.00,97.9075
532.20,97.8439
532.40,97.8490
532.60,97.6510
532.80,97.5718
533.00,97.6262
533.20,97.8052
533.40,97.5698
533.60,97.6793
533.80,97.6270
534.00,97.7804
534.20,97.7756
534.40,97.8708
534.60,98.0299
534.80,97.8669
535.00,97.8991
535.20,97.8421
535.40,98.1199
535.60,97.8932
535.80,97.9291
536.00,97.8328
536.20,97.7994
536.40,98.0301
536.60,97.7709
536.80,97.8586
537.00,97.8682
537.20,97.8348
537.40,97.8832
537.60,97.9647
537.80,97.8610
538.00,97.7245
538.20,97.9876
538.40,98.0052
538.60,97.9240
538.80,98.1877
539.00,98.1738
539.20,98.1894
539.40,97.8662
539.60,98.0611
539.80,97.9761
540.00,98.1528
540.20,98.1966
540.40,97.8444
540.60,97.9317
540.80,98.1148
541.00,98.0187
541.20,97.9633
541.40,97.9127
541.60,97.8472
541.80,97.7719
542.00,97.9169
542.20,97.8714
542.40,97.8937
542.60,98.0398
542.80,98.0844
543.00,98.0604
543.20,98.1594
543.40,98.1425
543.60,98.0561
543.80,98.0643
544.00,97.8478
544.20,97.9828
544.40,98.0970
544.60,98.2451
544.80,97.8012
545.00,98.1779
545.20,98.0043
545.40,98.2458
545.60,98.0304
545.80,98.0213
546.00,98.1208
546.20,98.1741
546.40,98.1662
546.60,98.0705
546.80,98.1414
547.00,98.0279
547.20,98.0292
547.40,98.2388
547.60,98.1579
547.80,98.2335
548.00,98.0990
548.20,98.2125
548.40,98.1216
548.60,98.1072
548.80,97.9951
549.00,98.1363
549.20,98.1953
549.40,98.2856
549.60,98.0216
549.80,98.2770
550.00,98.0635
550.20,98.1587
550.40,98.1911
550.60,98.0843
550.80,98.0474
551.00,98.2718
551.20,98.1618
551.40,98.1727
551.60,97.9251
551.80,98.2259
552.00,98.3664
552.20,98.2674
552.40,97.9825
552.60,98.0220
552.80,98.0020
553.00,98.1628
553.20,97.9923
553.40,98.1874
553.60,98.4405
553.80,98.2482
554.00,98.0295
554.20,98.1225
554.40,98.1937
554.60,98.2121
554.80,98.4403
555.00,98.1720
555.20,98.3226
555.40,98.4649
555.60,98.2893
555.80,98.4748
556.00,98.1737
556.20,98.3821
556.40,98.3259
556.60,98.2974
556.80,98.2228
557.00,98.3568
557.20,98.3486
557.40,98.0971
557.60,98.3134
557.80,98.1484
558.00,97.8081
558.20,98.1018
558.40,98.5692
558.60,98.3611
558.80,98.3293
559.00,98.0025
559.20,98.2768
559.40,98.1844
559.60,97.9878
559.80,97.7920
560.00,97.9530
560.20,98.0631
560.40,98.3997
560.60,98.2034
560.80,97.9855
561.00,97.8523
561.20,98.1257
561.40,98.2344
561.60,98.2439
561.80,98.1160
562.00,98.1671
562.20,98.0655
562.40,98.0179
562.60,98.1481
562.80,98.2491
563.00,98.2213
563.20,98.0022
563.40,98.1776
563.60,98.1990
563.80,98.4002
564.00,98.4252
564.20,97.9979
564.40,98.0137
564.60,98.2514
564.80,98.4863
565.00,98.2348
565.20,98.2655
565.40,98.3241
565.60,98.2636
565.80,97.9148
566.00,98.3245
566.20,98.4543
566.40,98.1055
566.60,98.1250
566.80,98.4109
567.00,98.2902
567.20,98.0761
567.40,98.3319
567.60,98.5435
567.80,98.4107
568.00,98.3667
568.20,98.2729
568.40,98.0736
568.60,98.3206
568.80,98.2329
569.00,98.3577
569.20,97.9426
569.40,98.3075
569.60,98.1189
569.80,98.2978
570.00,98.4222
570.20,98.4375
570.40,98.3149
570.60,98.1406
570.80,98.0411
571.00,98.2383
571.20,98.2344
571.40,97.7526
571.60,98.3886
571.80,98.4836
572.00,98.2804
572.20,98.0916
572.40,98.2103
572.60,98.3443
572.80,98.2028
573.00,98.0992
573.20,98.1251
573.40,98.2441
573.60,98.3225
573.80,98.3699
574.00,98.2076
574.20,98.3621
574.40,98.3569
574.60,98.1457
574.80,98.2110
575.00,97.9016
575.20,98.2307
575.40,98.4294
575.60,98.5152
575.80,98.2334
576.00,98.2436
576.20,98.2854
576.40,98.4324
576.60,98.4005
576.80,98.3832
577.00,98.1597
577.20,97.5328
577.40,98.2900
577.60,98.4177
577.80,98.1936
578.00,98.4838
578.20,98.1191
578.40,98.2997
578.60,98.2381
578.80,98.3885
579.00,98.2516
579.20,98.3096
579.40,98.5746
579.60,98.2713
579.80,98.2337
580.00,98.0510
580.20,98.6847
580.40,98.5196
580.60,98.0756
580.80,98.1216
581.00,98.4127
581.20,98.4231
581.40,98.3804
581.60,98.3544
581.80,98.0424
582.00,98.4920
582.20,97.9886
582.40,98.3679
582.60,98.2421
582.80,98.0990
583.00,98.3700
583.20,98.1877
583.40,98.2668
583.60,98.4017
583.80,98.4273
584.00,98.1040
584.20,98.0555
584.40,98.4634
584.60,97.9985
584.80,98.4626
585.00,98.0595
585.20,98.7292
585.40,98.3928
585.60,98.1505
585.80,98.7454
586.00,98.3754
586.20,97.7222
586.40,97.7404
586.60,98.6124
586.80,98.6698
587.00,98.5411
587.20,98.3032
587.40,98.6501
587.60,97.9575
587.80,98.3776
588.00,98.7743
588.20,98.3483
588.40,98.6803
588.60,98.8988
588.80,98.7421
589.00,98.4505
589.20,98.4968
589.40,98.2369
589.60,98.3530
589.80,98.2730
590.00,98.0444
590.20,98.0963
590.40,98.2018
590.60,98.3021
590.80,98.2776
591.00,98.4018
591.20,98.5065
591.40,98.0720
591.60,98.3327
591.80,98.1169
592.00,98.3690
592.20,98.1672
592.40,98.5530
592.60,98.1723
592.80,98.1146
593.00,98.0179
593.20,98.4453
593.40,98.3624
593.60,98.3003
593.80,98.3618
594.00,98.2791
594.20,98.2461
594.40,98.4218
594.60,98.4381
594.80,98.1063
595.00,98.4437
595.20,98.3714
595.40,98.3107
595.60,98.5172
595.80,98.0517
596.00,98.1402
596.20,98.3091
596.40,98.2494
596.60,98.2859
596.80,98.5269
597.00,98.1679
597.20,98.1321
597.40,98.4258
597.60,98.2107
597.80,98.3090
598.00,98.3375
598.20,98.2971
598.40,98.3142
598.60,98.3178
598.80,98.3527
599.00,98.3474
599.20,98.3688
599.40,98.2319
599.60,98.3761
599.80,98.3380
600.00,98.4166
600.20,98.3193
600.40,98.1587
600.60,98.1787
600.80,98.4325
601.00,98.2756
601.20,98.3973
601.40,98.2853
601.60,98.4017
601.80,97.7599
602.00,98.2179
602.20,98.2302
602.40,97.8228
602.60,98.3145
602.80,98.3907
603.00,98.1870
603.20,98.4075
603.40,98.6758
603.60,98.4519
603.80,98.3713
604.00,98.5825
604.20,98.4584
604.40,98.4942
604.60,98.1636
604.80,98.1893
605.00,98.4297
605.20,98.2414
605.40,98.4065
605.60,98.1679
605.80,98.1655
606.00,98.4208
606.20,98.3172
606.40,98.4826
606.60,98.5610
606.80,98.4075
607.00,98.5439
607.20,98.4475
607.40,98.4299
607.60,98.5664
607.80,98.5007
608.00,98.1565
608.20,98.4761
608.40,98.4123
608.60,98.2679
608.80,98.4324
609.00,98.2464
609.20,98.4259
609.40,98.3587
609.60,98.2617
609.80,98.2933
610.00,98.4475
610.20,98.4798
610.40,98.2118
610.60,98.1744
610.80,98.5302
611.00,98.6973
611.20,98.6119
611.40,98.3666
611.60,98.4517
611.80,98.4388
612.00,98.5807
612.20,98.5966
612.40,98.4747
612.60,98.1772
612.80,98.5984
613.00,98.5648
613.20,98.4164
613.40,98.1614
613.60,98.6406
613.80,98.2612
614.00,98.3355
614.20,98.5500
614.40,98.0762
614.60,98.4112
614.80,98.5302
615.00,98.4381
615.20,98.3639
615.40,98.6079
615.60,98.4409
615.80,98.6971
616.00,98.7805
616.20,98.3157
616.40,98.3932
616.60,98.4416
616.80,98.3435
617.00,98.3014
617.20,98.2415
617.40,98.3281
617.60,98.4750
617.80,98.4615
618.00,98.2691
618.20,98.2544
618.40,98.3455
618.60,98.2742
618.80,98.3569
619.00,98.2756
619.20,98.1785
619.40,98.1860
619.60,98.4766
619.80,98.6776
620.00,98.6629
620.20,98.6242
620.40,98.0825
620.60,98.3039
620.80,98.5120
621.00,98.2789
621.20,98.8127
621.40,98.4184
621.60,98.2179
621.80,98.5527
622.00,98.5668
622.20,98.6167
622.40,98.6298
622.60,98.5650
622.80,98.4094
623.00,98.4908
623.20,98.3460
623.40,98.4716
623.60,98.4697
623.80,98.2991
624.00,98.4541
624.20,98.3363
624.40,98.8116
624.60,98.2383
624.80,98.6524
625.00,98.3297
625.20,98.6295
625.40,98.4834
625.60,98.4023
625.80,98.4695
626.00,98.6331
626.20,98.6003
626.40,98.5418
626.60,98.3293
626.80,98.5088
627.00,98.5013
627.20,98.3535
627.40,98.3255
627.60,98.4447
627.80,98.5481
628.00,98.4821
628.20,98.3610
628.40,98.6393
628.60,98.4731
628.80,98.3366
629.00,98.7598
629.20,98.5815
629.40,98.5429
629.60,98.4910
629.80,98.7137
630.00,98.2532
630.20,98.4361
630.40,98.6642
630.60,98.5722
630.80,98.5425
631.00,98.4043
631.20,98.2702
631.40,98.5684
631.60,98.5970
631.80,98.5952
632.00,98.6486
632.20,98.7307
632.40,98.3892
632.60,98.1630
632.80,98.4377
633.00,98.3351
633.20,98.4467
633.40,98.4362
633.60,98.8692
633.80,98.5900
634.00,98.6587
634.20,98.4673
634.40,98.6764
634.60,98.3380
634.80,98.5363
635.00,98.3246
635.20,98.6222
635.40,98.5756
635.60,98.7662
635.80,98.6511
636.00,98.8106
636.20,98.5472
636.40,98.7536
636.60,98.4405
636.80,98.6592
637.00,98.6214
637.20,98.5951
637.40,98.6678
637.60,98.4721
637.80,98.5761
638.00,98.5756
638.20,98.5518
638.40,98.6990
638.60,98.6196
638.80,98.5021
639.00,98.8037
639.20,98.4355
639.40,98.6561
639.60,98.4940
639.80,98.6630
640.00,98.6633
640.20,98.6480
640.40,98.8430
640.60,99.1013
640.80,98.5429
641.00,98.6137
641.20,98.7213
641.40,98.5774
641.60,98.5242
641.80,98.3255
642.00,98.8060
642.20,98.4256
642.40,98.8664
642.60,98.6022
642.80,98.7949
643.00,98.7033
643.20,98.7113
643.40,98.5760
643.60,99.1429
643.80,98.5397
644.00,98.6093
644.20,98.3857
644.40,98.6494
644.60,98.7657
644.80,98.3094
645.00,98.9132
645.20,98.5585
645.40,98.9164
645.60,98.8683
645.80,98.3003
646.00,98.6175
646.20,98.8043
646.40,98.6542
646.60,98.3034
646.80,98.9007
647.00,98.2911
647.20,98.7859
647.40,98.9056
647.60,98.4620
647.80,98.7933
648.00,98.7636
648.20,98.8967
648.40,98.6027
648.60,98.5420
648.80,98.7770
649.00,98.7693
649.20,98.8060
649.40,98.7634
649.60,98.8078
649.80,98.7294
650.00,98.6395
650.20,98.5947
650.40,98.5124
650.60,98.5280
650.80,98.5646
651.00,98.8523
651.20,98.9066
651.40,98.9302
651.60,98.4421
651.80,98.8356
652.00,98.8958
652.20,98.6687
652.40,98.5907
652.60,98.6173
652.80,98.7433
653.00,98.7662
653.20,98.9849
653.40,98.4958
653.60,98.7579
653.80,98.7605
654.00,98.7112
654.20,98.8360
654.40,99.1005
654.60,98.9413
654.80,99.0506
655.00,99.0518
655.20,99.0760
655.40,98.6604
655.60,98.4271
655.80,98.5762
656.00,98.8387
656.20,98.9549
656.40,98.7691
656.60,98.7862
656.80,98.6611
657.00,98.7925
657.20,99.0405
657.40,98.8614
657.60,98.8361
657.80,98.7315
658.00,99.1362
658.20,98.7111
658.40,98.7954
658.60,98.6005
658.80,98.9938
659.00,98.4758
659.20,98.7126
659.40,98.7615
659.60,98.6168
659.80,99.0544
660.00,98.1464
660.20,98.7755
660.40,98.7252
660.60,99.2506
660.80,98.9057
661.00,99.0275
661.20,98.9409
661.40,98.5579
661.60,98.9611
661.80,98.9098
662.00,98.8731
662.20,98.9502
662.40,98.8833
662.60,98.9067
662.80,98.7161
663.00,99.1310
663.20,98.5508
663.40,98.7333
663.60,98.8030
663.80,98.7222
664.00,98.8587
664.20,99.0751
664.40,98.3022
664.60,98.8868
664.80,98.9592
665.00,98.6489
665.20,98.7275
665.40,98.5158
665.60,98.8941
665.80,98.6919
666.00,98.2974
666.20,99.0316
666.40,98.7273
666.60,99.0743
666.80,99.4931
667.00,99.1523
667.20,98.9953
667.40,98.6557
667.60,98.9680
667.80,98.7851
668.00,98.6740
668.20,98.9230
668.40,99.0536
668.60,99.0980
668.80,98.7459
669.00,98.9826
669.20,99.0400
669.40,99.0907
669.60,98.7098
669.80,98.8269
670.00,99.1204
670.20,99.2366
670.40,98.9097
670.60,99.3207
670.80,98.7669
671.00,99.1108
671.20,99.0128
671.40,99.4602
671.60,98.7569
671.80,98.6955
672.00,98.8283
672.20,99.0044
672.40,98.8856
672.60,98.9232
672.80,99.0172
673.00,98.5962
673.20,99.0107
673.40,99.1966
673.60,99.2851
673.80,98.5051
674.00,98.7408
674.20,99.1032
674.40,98.9386
674.60,99.0378
674.80,99.1736
675.00,99.0491
675.20,99.2416
675.40,99.0951
675.60,98.7408
675.80,99.2662
676.00,99.1552
676.20,99.2193
676.40,98.9737
676.60,99.2170
676.80,99.5476
677.00,99.3699
677.20,98.9355
677.40,99.1766
677.60,98.6811
677.80,98.6013
678.00,99.1230
678.20,99.5137
678.40,98.7918
678.60,98.8093
678.80,98.6967
679.00,98.6403
679.20,99.4026
679.40,99.2822
679.60,99.4593
679.80,99.3868
680.00,99.1052
680.20,98.8922
680.40,98.9371
680.60,98.9830
680.80,98.5681
681.00,98.9605
681.20,99.0044
681.40,99.0171
681.60,98.4594
681.80,98.5275
682.00,98.7025
682.20,99.6074
682.40,98.8848
682.60,99.0868
682.80,99.1843
683.00,99.0256
683.20,98.8934
683.40,99.0984
683.60,98.7061
683.80,98.5821
684.00,99.1815
684.20,99.1305
684.40,99.3104
684.60,99.3581
684.80,99.1230
685.00,98.5588
685.20,99.3885
685.40,99.2380
685.60,99.0999
685.80,98.7444
686.00,99.4645
686.20,99.0756
686.40,98.6298
686.60,99.2107
686.80,98.5572
687.00,98.7797
687.20,99.4469
687.40,99.0447
687.60,99.3792
687.80,98.9949
688.00,99.1746
688.20,99.1265
688.40,99.1770
688.60,99.0290
688.80,99.1281
689.00,99.0447
689.20,99.0289
689.40,99.3962
689.60,98.9157
689.80,99.0059
690.00,98.9698
690.20,98.8265
690.40,99.1455
690.60,99.2120
690.80,99.1117
691.00,98.6089
691.20,99.3235
691.40,99.1901
691.60,99.1810
691.80,99.5739
692.00,99.2066
692.20,99.4827
692.40,99.2263
692.60,98.7642
692.80,99.3715
693.00,99.2259
693.20,98.8570
693.40,98.9234
693.60,99.1512
693.80,98.9472
694.00,99.2022
694.20,99.2044
694.40,98.8157
694.60,99.1976
694.80,99.3534
695.00,99.7032
695.20,99.0976
695.40,99.3174
695.60,99.2040
695.80,99.1724
696.00,99.1203
696.20,99.2570
696.40,99.1451
696.60,99.7827
696.80,99.3973
697.00,99.2499
697.20,99.5962
697.40,99.5912
697.60,98.9597
697.80,99.2421
698.00,99.0964
698.20,99.5281
698.40,98.9709
698.60,99.3750
698.80,99.4593
699.00,99.1209
699.20,99.1992
699.40,99.1959
699.60,99.1758
699.80,99.5350
700.00,99.5499
700.20,99.3156
700.40,99.4817
700.60,99.6113
700.80,99.1394
701.00,99.6754
701.20,99.8432
701.40,99.6654
701.60,99.5142
701.80,99.7247
702.00,99.9695
702.20,99.4327
702.40,99.5810
702.60,99.5828
702.80,99.5194
703.00,99.5630
703.20,99.6756
703.40,99.7946
703.60,99.5957
703.80,99.3388
704.00,99.5563
704.20,99.7922
704.40,99.4696
704.60,99.1195
704.80,99.8858
705.00,99.4762
705.20,99.3450
705.40,99.7739
705.60,99.6937
705.80,99.5143
706.00,99.7856
706.20,99.5685
706.40,99.4901
706.60,99.6619
706.80,99.4902
707.00,99.5224
707.20,99.8287
707.40,99.5753
707.60,99.6516
707.80,99.5734
708.00,99.5727
708.20,99.3415
708.40,99.3806
708.60,99.4762
708.80,99.6200
709.00,99.6004
709.20,99.4584
709.40,99.7256
709.60,99.4446
709.80,99.8324
710.00,99.8778
710.20,99.2935
710.40,99.2991
710.60,99.1379
710.80,99.1057
711.00,99.7079
711.20,99.4413
711.40,99.3465
711.60,99.5428
711.80,99.5931
712.00,99.4372
712.20,99.7236
712.40,99.4302
712.60,99.7274
712.80,99.3516
713.00,99.4476
713.20,99.4713
713.40,99.7672
713.60,99.5319
713.80,99.6837
714.00,99.6801
714.20,99.5727
714.40,99.4194
714.60,99.6126
714.80,99.7876
715.00,99.4239
715.20,99.3720
715.40,99.8679
715.60,99.5411
715.80,99.4768
716.00,99.3672
716.20,99.8233
716.40,99.3776
716.60,99.5223
716.80,99.7268
717.00,99.2617
717.20,99.5173
717.40,99.6095
717.60,99.4976
717.80,99.7153
718.00,99.5671
718.20,99.6078
718.40,99.6929
718.60,99.3270
718.80,99.7130
719.00,99.6628
719.20,99.4895
719.40,99.7236
719.60,99.8303
719.80,99.4921
720.00,99.5005
720.20,99.6686
720.40,99.5666
720.60,99.2776
720.80,99.5042
721.00,99.5695
721.20,99.9633
721.40,99.7601
721.60,99.4678
721.80,99.4620
722.00,99.8534
722.20,99.7147
722.40,99.5044
722.60,99.4006
722.80,99.5515
723.00,99.3849
723.20,99.4023
723.40,99.3516
723.60,99.5191
723.80,99.7877
724.00,99.5033
724.20,99.5249
724.40,99.5470
724.60,99.7875
724.80,99.1317
725.00,99.7003
725.20,99.6180
725.40,99.4156
725.60,99.5774
725.80,99.7403
726.00,99.6475
726.20,99.7990
726.40,99.4712
726.60,99.5402
726.80,99.4538
727.00,99.7695
727.20,99.6708
727.40,99.3131
727.60,99.5009
727.80,99.4133
728.00,99.6767
728.20,99.2136
728.40,99.4721
728.60,99.6474
728.80,99.2982
729.00,99.2946
729.20,99.5087
729.40,99.6946
729.60,99.5407
729.80,99.4996
730.00,99.4984
730.20,99.3796
730.40,99.8273
730.60,99.5187
730.80,99.3361
731.00,99.2944
731.20,99.9709
731.40,99.4659
731.60,99.4737
731.80,99.1644
732.00,99.5256
732.20,99.7945
732.40,99.2727
732.60,99.3943
732.80,99.5061
733.00,99.4042
733.20,99.4866
733.40,99.6698
733.60,99.8093
733.80,99.3267
734.00,99.5257
734.20,99.2368
734.40,99.5153
734.60,99.5513
734.80,99.3720
735.00,99.5191
735.20,99.6272
735.40,99.4882
735.60,99.6176
735.80,99.5417
736.00,100.0238
736.20,99.7992
736.40,99.7216
736.60,99.6632
736.80,99.2148
737.00,99.4179
737.20,99.4910
737.40,99.3832
737.60,99.7695
737.80,99.5798
738.00,99.8848
738.20,99.9143
738.40,99.6959
738.60,99.8545
738.80,99.5876
739.00,99.5986
739.20,99.6109
739.40,99.3471
739.60,99.7006
739.80,99.3123
740.00,99.4801
740.20,99.5376
740.40,99.9901
740.60,99.3152
740.80,99.4249
741.00,99.2993
741.20,99.5794
741.40,99.8676
741.60,99.7925
741.80,99.5443
742.00,99.7974
742.20,99.2198
742.40,99.8334
742.60,99.5999
742.80,99.8430
743.00,99.5603
743.20,99.3866
743.40,99.5182
743.60,99.3202
743.80,99.3665
744.00,99.4088
744.20,99.5461
744.40,99.2650
744.60,99.4393
744.80,99.9050
745.00,99.7663
745.20,99.7657
745.40,99.6750
745.60,99.8261
745.80,99.3847
746.00,99.6315
746.20,99.5795
746.40,99.4243
746.60,99.8283
746.80,99.3844
747.00,99.6884
747.20,99.7895
747.40,99.6836
747.60,99.7772
747.80,100.1916
748.00,99.8305
748.20,99.9246
748.40,100.5547
748.60,99.7025
748.80,99.8269
749.00,99.3983
749.20,99.1838
749.40,99.5734
749.60,99.2365
749.80,99.4057
750.00,99.7807
750.20,99.6680
750.40,99.2687
750.60,99.8862
750.80,99.5918
751.00,99.7008
751.20,99.5262
751.40,99.7313
751.60,99.8319
751.80,100.0124
752.00,100.1835
752.20,99.9924
752.40,99.4871
752.60,99.4532
752.80,100.0461
753.00,99.3914
753.20,99.3575
753.40,99.9238
753.60,99.3762
753.80,99.5317
754.00,99.7046
754.20,99.8625
754.40,99.5812
754.60,99.4136
754.80,99.4461
755.00,99.9050
755.20,99.8238
755.40,99.6616
755.60,100.0092
755.80,99.7237
756.00,99.6382
756.20,99.7362
756.40,99.4376
756.60,100.0267
756.80,99.4385
757.00,99.6532
757.20,99.9167
757.40,99.4079
757.60,99.6483
757.80,99.5246
758.00,99.6723
758.20,99.6418
758.40,99.6379
758.60,99.8720
758.80,100.1139
759.00,99.5852
759.20,99.7454
759.40,99.7728
759.60,99.9634
759.80,100.1643
760.00,99.3328
760.20,99.6185
760.40,99.3985
760.60,99.6724
760.80,99.3292
761.00,99.7652
761.20,99.4703
761.40,99.9396
761.60,100.3588
761.80,99.8883
762.00,99.2979
762.20,99.7588
762.40,100.0263
762.60,99.8093
762.80,99.6729
763.00,99.9061
763.20,99.7737
763.40,99.6878
763.60,99.2800
763.80,99.5633
764.00,99.3347
764.20,99.9326
764.40,99.5540
764.60,99.6779
764.80,99.3341
765.00,99.6351
765.20,99.3656
765.40,99.3142
765.60,99.3901
765.80,99.6560
766.00,99.8760
766.20,99.5060
766.40,99.9719
766.60,99.3793
766.80,100.1645
767.00,99.4775
767.20,100.1498
767.40,99.5366
767.60,99.3383
767.80,99.5870
768.00,99.9641
768.20,100.4208
768.40,99.7735
768.60,99.7420
768.80,99.8988
769.00,99.9988
769.20,100.0814
769.40,99.7739
769.60,99.6366
769.80,99.8274
770.00,99.4249
770.20,99.8619
770.40,99.9256
770.60,99.3703
770.80,100.2536
771.00,99.3793
771.20,99.5874
771.40,99.8458
771.60,100.4225
771.80,99.9130
772.00,100.3799
772.20,100.1776
772.40,99.4933
772.60,100.0533
772.80,100.0932
773.00,100.1828
773.20,99.5961
773.40,100.1418
773.60,99.7994
773.80,99.8580
774.00,100.3354
774.20,100.2307
774.40,99.9129
774.60,99.9838
774.80,100.1244
775.00,100.0556
775.20,100.0039
775.40,100.9615
775.60,100.0855
775.80,99.9516
776.00,99.7199
776.20,100.4524
776.40,99.7391
776.60,100.0224
776.80,100.4444
777.00,100.1512
777.20,99.6413
777.40,100.1308
777.60,100.8056
777.80,99.8095
778.00,100.6365
778.20,100.3586
778.40,99.8957
778.60,100.0740
778.80,100.7859
779.00,100.3325
779.20,99.9606
779.40,99.6187
779.60,100.0362
779.80,99.6641
780.00,100.7483
780.20,100.1155
780.40,100.3677
780.60,99.6486
780.80,99.6491
781.00,100.3111
781.20,99.9421
781.40,99.6248
781.60,99.6244
781.80,100.1803
782.00,100.3779
782.20,100.0747
782.40,100.1461
782.60,100.3539
782.80,99.7672
783.00,99.8874
783.20,100.1542
783.40,99.4962
783.60,100.3672
783.80,100.9409
784.00,99.9821
784.20,100.1713
784.40,100.1488
784.60,99.7173
784.80,99.6241
785.00,99.9684
785.20,99.3846
785.40,100.0352
785.60,98.9927
785.80,99.4628
786.00,100.9465
786.20,99.8981
786.40,99.3491
786.60,100.3528
786.80,99.7471
787.00,99.6498
787.20,99.7308
787.40,99.8412
787.60,100.3483
787.80,100.1478
788.00,99.7392
788.20,100.1731
788.40,100.2301
788.60,99.3220
788.80,100.4177
789.00,99.8576
789.20,99.5645
789.40,100.6094
789.60,99.9354
789.80,100.1819
790.00,100.1713
790.20,100.3595
790.40,99.6888
790.60,99.4231
790.80,100.2980
791.00,99.9106
791.20,99.5200
791.40,99.6653
791.60,100.1061
791.80,99.7261
792.00,99.7147
792.20,100.3074
792.40,99.5204
792.60,100.4105
792.80,99.9387
793.00,100.1873
793.20,100.1960
793.40,99.9956
793.60,100.1234
793.80,100.4461
794.00,99.9108
794.20,100.1065
794.40,100.8575
794.60,100.3372
794.80,100.2210
795.00,99.6788
795.20,100.0942
795.40,100.6294
795.60,99.7119
795.80,99.7082
796.00,100.4003
796.20,100.2836
796.40,100.3000
796.60,100.0659
796.80,100.0524
797.00,100.5932
797.20,100.2658
797.40,100.0097
797.60,99.3568
797.80,100.6030
798.00,100.7193
798.20,100.0202
798.40,99.8785
798.60,100.2717
798.80,99.9203
799.00,100.0414
799.20,100.8181
799.40,100.1985
799.60,100.1456
799.80,100.2713
800.00,100.3072
