Batch,scan003
EV300,140607
Data Mode,%T  None
Sample,Tedlar_%T_190-800_b
Cycle,Cycle01
Date Collected,7/28/2016
Time Collected,2:07:01PM
Entries,Data Points
nm,%T
190.00,0.0288
190.20,0.0294
190.40,0.0323
190.60,0.0329
190.80,0.0350
191.00,0.0316
191.20,0.0301
191.40,0.0261
191.60,0.0226
191.80,0.0258
192.00,0.0222
192.20,0.0240
192.40,0.0258
192.60,0.0278
192.80,0.0184
193.00,0.0216
193.20,0.0207
193.40,0.0177
193.60,0.0179
193.80,0.0206
194.00,0.0176
194.20,0.0208
194.40,0.0192
194.60,0.0181
194.80,0.0203
195.00,0.0245
195.20,0.0180
195.40,0.0206
195.60,0.0198
195.80,0.0177
196.00,0.0163
196.20,0.0201
196.40,0.0174
196.60,0.0173
196.80,0.0183
197.00,0.0174
197.20,0.0170
197.40,0.0139
197.60,0.0157
197.80,0.0161
198.00,0.0152
198.20,0.0151
198.40,0.0158
198.60,0.0158
198.80,0.0156
199.00,0.0185
199.20,0.0167
199.40,0.0176
199.60,0.0189
199.80,0.0199
200.00,0.0190
200.20,0.0189
200.40,0.0207
200.60,0.0191
200.80,0.0190
201.00,0.0199
201.20,0.0207
201.40,0.0198
201.60,0.0189
201.80,0.0195
202.00,0.0190
202.20,0.0190
202.40,0.0177
202.60,0.0164
202.80,0.0181
203.00,0.0178
203.20,0.0182
203.40,0.0174
203.60,0.0170
203.80,0.0175
204.00,0.0200
204.20,0.0177
204.40,0.0155
204.60,0.0164
204.80,0.0168
205.00,0.0170
205.20,0.0167
205.40,0.0161
205.60,0.0174
205.80,0.0166
206.00,0.0162
206.20,0.0170
206.40,0.0159
206.60,0.0163
206.80,0.0171
207.00,0.0165
207.20,0.0168
207.40,0.0168
207.60,0.0169
207.80,0.0184
208.00,0.0182
208.20,0.0192
208.40,0.0179
208.60,0.0195
208.80,0.0183
209.00,0.0184
209.20,0.0178
209.40,0.0168
209.60,0.0193
209.80,0.0187
210.00,0.0183
210.20,0.0188
210.40,0.0180
210.60,0.0194
210.80,0.0190
211.00,0.0195
211.20,0.0195
211.40,0.0193
211.60,0.0180
211.80,0.0186
212.00,0.0179
212.20,0.0186
212.40,0.0168
212.60,0.0185
212.80,0.0198
213.00,0.0204
213.20,0.0200
213.40,0.0219
213.60,0.0209
213.80,0.0211
214.00,0.0204
214.20,0.0199
214.40,0.0225
214.60,0.0207
214.80,0.0219
215.00,0.0211
215.20,0.0225
215.40,0.0222
215.60,0.0225
215.80,0.0232
216.00,0.0233
216.20,0.0234
216.40,0.0222
216.60,0.0230
216.80,0.0224
217.00,0.0227
217.20,0.0241
217.40,0.0234
217.60,0.0233
217.80,0.0237
218.00,0.0249
218.20,0.0238
218.40,0.0247
218.60,0.0254
218.80,0.0249
219.00,0.0244
219.20,0.0239
219.40,0.0241
219.60,0.0236
219.80,0.0244
220.00,0.0244
220.20,0.0227
220.40,0.0228
220.60,0.0227
220.80,0.0260
221.00,0.0235
221.20,0.0241
221.40,0.0230
221.60,0.0234
221.80,0.0231
222.00,0.0232
222.20,0.0225
222.40,0.0229
222.60,0.0227
222.80,0.0236
223.00,0.0284
223.20,0.0239
223.40,0.0253
223.60,0.0261
223.80,0.0252
224.00,0.0257
224.20,0.0206
224.40,0.0239
224.60,0.0243
224.80,0.0264
225.00,0.0255
225.20,0.0259
225.40,0.0238
225.60,0.0240
225.80,0.0241
226.00,0.0219
226.20,0.0206
226.40,0.0214
226.60,0.0224
226.80,0.0209
227.00,0.0208
227.20,0.0198
227.40,0.0189
227.60,0.0201
227.80,0.0194
228.00,0.0173
228.20,0.0187
228.40,0.0161
228.60,0.0170
228.80,0.0156
229.00,0.0154
229.20,0.0157
229.40,0.0151
229.60,0.0151
229.80,0.0156
230.00,0.0155
230.20,0.0165
230.40,0.0165
230.60,0.0174
230.80,0.0187
231.00,0.0187
231.20,0.0205
231.40,0.0210
231.60,0.0200
231.80,0.0214
232.00,0.0223
232.20,0.0222
232.40,0.0231
232.60,0.0267
232.80,0.0281
233.00,0.0275
233.20,0.0302
233.40,0.0301
233.60,0.0317
233.80,0.0310
234.00,0.0294
234.20,0.0302
234.40,0.0314
234.60,0.0309
234.80,0.0328
235.00,0.0345
235.20,0.0364
235.40,0.0410
235.60,0.0409
235.80,0.0457
236.00,0.0486
236.20,0.0506
236.40,0.0549
236.60,0.0575
236.80,0.0629
237.00,0.0694
237.20,0.0767
237.40,0.0869
237.60,0.1007
237.80,0.1142
238.00,0.1333
238.20,0.1496
238.40,0.1729
238.60,0.2000
238.80,0.2350
239.00,0.2791
239.20,0.3306
239.40,0.3913
239.60,0.4669
239.80,0.5532
240.00,0.6609
240.20,0.7782
240.40,0.9144
240.60,1.0792
240.80,1.2651
241.00,1.4782
241.20,1.7194
241.40,1.9945
241.60,2.3047
241.80,2.6522
242.00,3.0259
242.20,3.4306
242.40,3.8481
242.60,4.2822
242.80,4.7225
243.00,5.1716
243.20,5.6372
243.40,6.1558
243.60,6.7148
243.80,7.3415
244.00,7.9810
244.20,8.6836
244.40,9.4215
244.60,10.1742
244.80,10.9697
245.00,11.7674
245.20,12.5733
245.40,13.4084
245.60,14.2469
245.80,15.0755
246.00,15.9254
246.20,16.7690
246.40,17.6288
246.60,18.4821
246.80,19.2882
247.00,19.9849
247.20,20.6282
247.40,21.2246
247.60,21.7874
247.80,22.3576
248.00,22.9170
248.20,23.5129
248.40,24.1514
248.60,24.7440
248.80,25.2981
249.00,25.7720
249.20,26.2284
249.40,26.6661
249.60,27.0567
249.80,27.4779
250.00,27.8629
250.20,28.2812
250.40,28.6169
250.60,28.9673
250.80,29.2755
251.00,29.6193
251.20,29.8788
251.40,30.1785
251.60,30.3819
251.80,30.6354
252.00,30.8458
252.20,31.0177
252.40,31.1551
252.60,31.2679
252.80,31.3373
253.00,31.4084
253.20,31.4611
253.40,31.4761
253.60,31.5317
253.80,31.5238
254.00,31.5666
254.20,31.4827
254.40,31.4307
254.60,31.3832
254.80,31.3472
255.00,31.3227
255.20,31.2339
255.40,31.1059
255.60,31.0674
255.80,30.9609
256.00,30.8590
256.20,30.7475
256.40,30.6460
256.60,30.5475
256.80,30.3990
257.00,30.2772
257.20,30.1351
257.40,29.9817
257.60,29.8602
257.80,29.6881
258.00,29.5602
258.20,29.3743
258.40,29.1785
258.60,28.9607
258.80,28.7365
259.00,28.4815
259.20,28.2428
259.40,28.0144
259.60,27.7581
259.80,27.5068
260.00,27.2129
260.20,27.0081
260.40,26.7964
260.60,26.5611
260.80,26.3073
261.00,26.0454
261.20,25.7495
261.40,25.4072
261.60,25.0516
261.80,24.6879
262.00,24.3474
262.20,23.9771
262.40,23.6403
262.60,23.3117
262.80,23.0149
263.00,22.6997
263.20,22.4258
263.40,22.1864
263.60,21.9125
263.80,21.6417
264.00,21.4119
264.20,21.1180
264.40,20.8628
264.60,20.5889
264.80,20.3002
265.00,20.2237
265.20,19.9347
265.40,19.6405
265.60,19.3558
265.80,19.0826
266.00,18.7891
266.20,18.4927
266.40,18.1989
266.60,17.9024
266.80,17.6458
267.00,17.3693
267.20,17.1168
267.40,16.8301
267.60,16.5356
267.80,16.2211
268.00,15.9118
268.20,15.6095
268.40,15.3204
268.60,15.0602
268.80,14.8263
269.00,14.5856
269.20,14.3642
269.40,14.1499
269.60,13.9608
269.80,13.7625
270.00,13.5744
270.20,13.3885
270.40,13.2150
270.60,13.0071
270.80,12.8029
271.00,12.5978
271.20,12.4144
271.40,12.2439
271.60,12.0965
271.80,11.9629
272.00,11.8446
272.20,11.6923
272.40,11.5351
272.60,11.3484
272.80,11.1491
273.00,10.9562
273.20,10.7883
273.40,10.5973
273.60,10.4368
273.80,10.2878
274.00,10.1330
274.20,9.9830
274.40,9.8166
274.60,9.6633
274.80,9.5142
275.00,9.3633
275.20,9.2151
275.40,9.0712
275.60,8.9316
275.80,8.8008
276.00,8.6733
276.20,8.5574
276.40,8.4537
276.60,8.3490
276.80,8.2420
277.00,8.1530
277.20,8.0625
277.40,7.9902
277.60,7.9299
277.80,7.8725
278.00,7.8395
278.20,7.8327
278.40,7.8506
278.60,7.8585
278.80,7.9027
279.00,7.9759
279.20,8.0828
279.40,8.1996
279.60,8.3506
279.80,8.5090
280.00,8.7013
280.20,8.9163
280.40,9.1376
280.60,9.3739
280.80,9.6281
281.00,9.8891
281.20,10.1319
281.40,10.3743
281.60,10.5939
281.80,10.7864
282.00,10.9509
282.20,11.0762
282.40,11.1666
282.60,11.2181
282.80,11.2195
283.00,11.1837
283.20,11.1238
283.40,11.0211
283.60,10.8710
283.80,10.6877
284.00,10.5186
284.20,10.3422
284.40,10.1875
284.60,10.0401
284.80,9.9557
285.00,9.8552
285.20,9.7868
285.40,9.7554
285.60,9.7796
285.80,9.8596
286.00,9.9803
286.20,10.1944
286.40,10.4489
286.60,10.7963
286.80,11.2140
287.00,11.7089
287.20,12.2821
287.40,12.9612
287.60,13.6984
287.80,14.5745
288.00,15.6822
288.20,16.8785
288.40,18.1810
288.60,19.6333
288.80,21.1746
289.00,22.7251
289.20,24.3613
289.40,26.0584
289.60,27.7874
289.80,29.7138
290.00,31.6953
290.20,33.7337
290.40,35.6522
290.60,37.4613
290.80,39.1692
291.00,40.7596
291.20,42.3292
291.40,43.9452
291.60,45.5002
291.80,47.0193
292.00,48.3523
292.20,49.6980
292.40,50.8876
292.60,52.0154
292.80,53.1402
293.00,54.1673
293.20,55.1141
293.40,56.0724
293.60,56.9952
293.80,57.7094
294.00,58.4815
294.20,59.1315
294.40,59.7937
294.60,60.3898
294.80,60.8961
295.00,61.4150
295.20,61.8589
295.40,62.2244
295.60,62.5824
295.80,62.9922
296.00,63.3587
296.20,63.6589
296.40,64.0257
296.60,64.3191
296.80,64.5971
297.00,64.8605
297.20,65.0989
297.40,65.3226
297.60,65.5472
297.80,65.7015
298.00,65.8523
298.20,65.9920
298.40,66.1416
298.60,66.2299
298.80,66.3040
299.00,66.4215
299.20,66.4992
299.40,66.5488
299.60,66.6862
299.80,66.7472
300.00,66.8279
300.20,66.9286
300.40,67.0118
300.60,67.0932
300.80,67.2118
301.00,67.2252
301.20,67.3881
301.40,67.4418
301.60,67.5320
301.80,67.5946
302.00,67.6540
302.20,67.8050
302.40,67.8083
302.60,67.8968
302.80,67.9917
303.00,67.9734
303.20,68.0588
303.40,68.0793
303.60,68.1021
303.80,68.2153
304.00,68.2528
304.20,68.3555
304.40,68.3116
304.60,68.3286
304.80,68.4435
305.00,68.4724
305.20,68.5308
305.40,68.6699
305.60,68.7463
305.80,68.7684
306.00,68.8660
306.20,68.9176
306.40,69.0370
306.60,69.1021
306.80,69.1230
307.00,69.1887
307.20,69.2337
307.40,69.3275
307.60,69.4375
307.80,69.4753
308.00,69.5667
308.20,69.6553
308.40,69.7790
308.60,69.7982
308.80,69.9100
309.00,69.9687
309.20,70.0215
309.40,70.0140
309.60,70.1170
309.80,70.1548
310.00,70.2262
310.20,70.2488
310.40,70.3101
310.60,70.3046
310.80,70.3632
311.00,70.4384
311.20,70.4962
311.40,70.4806
311.60,70.5147
311.80,70.6443
312.00,70.6072
312.20,70.6698
312.40,70.6515
312.60,70.7140
312.80,70.7159
313.00,70.7735
313.20,70.8330
313.40,70.9090
313.60,70.9303
313.80,71.0098
314.00,71.0188
314.20,71.0110
314.40,71.0956
314.60,71.1723
314.80,71.2884
315.00,71.3089
315.20,71.2647
315.40,71.5033
315.60,71.3926
315.80,71.4748
316.00,71.4681
316.20,71.4552
316.40,71.5260
316.60,71.4719
316.80,71.4052
317.00,71.3689
317.20,71.4217
317.40,71.4770
317.60,71.4079
317.80,71.4782
318.00,71.5862
318.20,71.5922
318.40,71.6705
318.60,71.6700
318.80,71.7317
319.00,71.7511
319.20,71.8271
319.40,71.8786
319.60,71.7748
319.80,71.9134
320.00,71.9641
320.20,71.9711
320.40,72.0385
320.60,71.9905
320.80,72.0673
321.00,72.0460
321.20,72.1070
321.40,72.1525
321.60,72.2395
321.80,72.1541
322.00,72.2731
322.20,72.3167
322.40,72.3355
322.60,72.2782
322.80,72.4350
323.00,72.3523
323.20,72.3818
323.40,72.4511
323.60,72.5446
323.80,72.6143
324.00,72.6358
324.20,72.7651
324.40,72.7464
324.60,72.7811
324.80,72.8045
325.00,72.8386
325.20,72.8012
325.40,72.8211
325.60,72.8589
325.80,72.8444
326.00,72.8706
326.20,72.9390
326.40,73.0259
326.60,72.9375
326.80,72.9816
327.00,72.9983
327.20,73.0637
327.40,73.0918
327.60,73.0755
327.80,73.1174
328.00,73.0664
328.20,73.2233
328.40,73.2341
328.60,73.2191
328.80,73.2611
329.00,73.2287
329.20,73.2811
329.40,73.2833
329.60,73.3319
329.80,73.4074
330.00,73.3452
330.20,73.3895
330.40,73.4664
330.60,73.4637
330.80,73.4764
331.00,73.5502
331.20,73.5405
331.40,73.5456
331.60,73.5509
331.80,73.5880
332.00,73.5868
332.20,73.6518
332.40,73.6809
332.60,73.6443
332.80,73.7204
333.00,73.8674
333.20,73.8381
333.40,73.8916
333.60,73.8650
333.80,73.9322
334.00,73.9355
334.20,73.9775
334.40,74.0064
334.60,73.9379
334.80,74.0507
335.00,74.0312
335.20,74.0335
335.40,74.0976
335.60,74.0463
335.80,74.1688
336.00,74.1209
336.20,74.2619
336.40,74.1719
336.60,74.1986
336.80,74.2793
337.00,74.2946
337.20,74.3397
337.40,74.3736
337.60,74.4528
337.80,74.3547
338.00,74.4639
338.20,74.4908
338.40,74.5403
338.60,74.6052
338.80,74.5864
339.00,74.5415
339.20,74.5959
339.40,74.6194
339.60,74.5682
339.80,74.5825
340.00,74.6557
340.20,74.6344
340.40,74.6400
340.60,74.7070
340.80,74.7186
341.00,74.6531
341.20,74.8415
341.40,74.7958
341.60,74.9242
341.80,74.8231
342.00,74.8827
342.20,74.8678
342.40,74.9284
342.60,74.8741
342.80,74.9508
343.00,74.8574
343.20,74.9605
343.40,74.9831
343.60,75.0269
343.80,74.9858
344.00,75.0564
344.20,75.0952
344.40,75.1024
344.60,75.1071
344.80,75.2138
345.00,75.2120
345.20,75.3068
345.40,75.2414
345.60,75.2415
345.80,75.2908
346.00,75.3070
346.20,75.2943
346.40,75.3815
346.60,75.2777
346.80,75.3101
347.00,75.3606
347.20,75.3738
347.40,75.3649
347.60,75.3717
347.80,75.3965
348.00,75.4190
348.20,75.3952
348.40,75.3781
348.60,75.4002
348.80,75.4101
349.00,75.4173
349.20,75.4595
349.40,75.4644
349.60,75.4612
349.80,75.5370
350.00,75.5378
350.20,75.5262
350.40,75.5462
350.60,75.5203
350.80,75.5995
351.00,75.5273
351.20,75.5677
351.40,75.6908
351.60,75.5294
351.80,75.6193
352.00,75.6380
352.20,75.5961
352.40,75.6575
352.60,75.6776
352.80,75.6918
353.00,75.6668
353.20,75.6861
353.40,75.7183
353.60,75.7551
353.80,75.8123
354.00,75.7410
354.20,75.7348
354.40,75.8026
354.60,75.7372
354.80,75.6885
355.00,75.7311
355.20,75.8451
355.40,75.7651
355.60,75.7548
355.80,75.8616
356.00,75.8498
356.20,75.8785
356.40,75.8411
356.60,75.7842
356.80,75.9102
357.00,75.9630
357.20,75.9343
357.40,76.0429
357.60,76.0391
357.80,76.0878
358.00,76.0833
358.20,76.2353
358.40,76.1220
358.60,76.2184
358.80,76.2797
359.00,76.1493
359.20,76.2077
359.40,76.2987
359.60,76.1913
359.80,76.2475
360.00,76.2526
360.20,76.3001
360.40,76.2725
360.60,76.3569
360.80,76.3848
361.00,76.4711
361.20,76.5206
361.40,76.5523
361.60,76.6061
361.80,76.6892
362.00,76.7441
362.20,76.9270
362.40,76.9091
362.60,76.9000
362.80,76.9140
363.00,76.9213
363.20,76.8905
363.40,76.8751
363.60,76.7867
363.80,76.8212
364.00,76.7663
364.20,76.7504
364.40,76.7828
364.60,76.8463
364.80,76.8315
365.00,76.9238
365.20,76.9275
365.40,76.9225
365.60,76.9959
365.80,76.9676
366.00,76.9965
366.20,77.0591
366.40,77.0742
366.60,77.1705
366.80,77.1137
367.00,77.3189
367.20,77.2558
367.40,77.2508
367.60,77.3275
367.80,77.2916
368.00,77.4457
368.20,77.4064
368.40,77.4901
368.60,77.6763
368.80,77.5364
369.00,77.6641
369.20,77.6467
369.40,77.6802
369.60,77.6844
369.80,77.7308
370.00,77.8897
370.20,77.7629
370.40,77.7938
370.60,77.7586
370.80,77.9880
371.00,77.8581
371.20,77.9279
371.40,77.9668
371.60,77.9906
371.80,78.0335
372.00,77.9914
372.20,78.0839
372.40,78.1322
372.60,78.0010
372.80,78.1242
373.00,78.0947
373.20,78.2653
373.40,78.2775
373.60,78.3017
373.80,78.3248
374.00,78.2208
374.20,78.3182
374.40,78.3318
374.60,78.3286
374.80,78.3325
375.00,78.4101
375.20,78.3617
375.40,78.4505
375.60,78.4350
375.80,78.5880
376.00,78.4639
376.20,78.5120
376.40,78.5722
376.60,78.5697
376.80,78.6025
377.00,78.5447
377.20,78.5892
377.40,78.6546
377.60,78.5696
377.80,78.6059
378.00,78.5679
378.20,78.6000
378.40,78.5717
378.60,78.6250
378.80,78.6545
379.00,78.7441
379.20,78.7651
379.40,78.7689
379.60,78.6995
379.80,78.7978
380.00,78.6648
380.20,78.8670
380.40,78.9161
380.60,78.7731
380.80,78.7960
381.00,78.9606
381.20,78.8364
381.40,79.0243
381.60,78.8805
381.80,78.8844
382.00,78.9178
382.20,78.9351
382.40,78.9545
382.60,79.0133
382.80,78.9015
383.00,79.0407
383.20,78.9387
383.40,78.9795
383.60,78.9500
383.80,79.0649
384.00,79.0161
384.20,79.0573
384.40,79.0362
384.60,79.0925
384.80,79.0933
385.00,78.9870
385.20,79.1364
385.40,79.0943
385.60,79.1499
385.80,79.1248
386.00,79.2010
386.20,79.1555
386.40,79.2398
386.60,79.2098
386.80,79.2245
387.00,79.2726
387.20,79.3600
387.40,79.2863
387.60,79.3064
387.80,79.3670
388.00,79.3739
388.20,79.1730
388.40,79.3325
388.60,79.3172
388.80,79.3683
389.00,79.4019
389.20,79.4333
389.40,79.4641
389.60,79.4049
389.80,79.4270
390.00,79.4311
390.20,79.4272
390.40,79.5172
390.60,79.4545
390.80,79.4956
391.00,79.4879
391.20,79.5890
391.40,79.5682
391.60,79.4966
391.80,79.4973
392.00,79.5200
392.20,79.4945
392.40,79.5263
392.60,79.5115
392.80,79.5809
393.00,79.5563
393.20,79.6473
393.40,79.7282
393.60,79.7740
393.80,79.7163
394.00,79.6849
394.20,79.7575
394.40,79.7688
394.60,79.7561
394.80,79.6944
395.00,79.7633
395.20,79.7048
395.40,79.7358
395.60,79.7463
395.80,79.7460
396.00,79.7590
396.20,79.8262
396.40,79.7774
396.60,79.8686
396.80,79.8282
397.00,79.8186
397.20,79.8449
397.40,79.8555
397.60,79.8808
397.80,79.8170
398.00,79.9678
398.20,79.9494
398.40,79.9910
398.60,79.9466
398.80,79.9429
399.00,79.9314
399.20,80.0109
399.40,80.0168
399.60,80.1158
399.80,79.9366
400.00,80.1241
400.20,80.0743
400.40,80.1884
400.60,80.1357
400.80,80.1470
401.00,80.2060
401.20,80.2152
401.40,80.2474
401.60,80.2860
401.80,80.2658
402.00,80.3315
402.20,80.2307
402.40,80.3657
402.60,80.3735
402.80,80.3141
403.00,80.3133
403.20,80.3945
403.40,80.3225
403.60,80.3525
403.80,80.4064
404.00,80.4006
404.20,80.4634
404.40,80.4367
404.60,80.3906
404.80,80.4274
405.00,80.4355
405.20,80.4807
405.40,80.4863
405.60,80.4860
405.80,80.4927
406.00,80.4801
406.20,80.5291
406.40,80.5610
406.60,80.5960
406.80,80.5712
407.00,80.5458
407.20,80.6279
407.40,80.5426
407.60,80.6551
407.80,80.5739
408.00,80.7154
408.20,80.5818
408.40,80.6818
408.60,80.7549
408.80,80.6904
409.00,80.7535
409.20,80.7500
409.40,80.7212
409.60,80.8225
409.80,80.9262
410.00,80.8533
410.20,80.8534
410.40,80.8120
410.60,80.9267
410.80,80.8959
411.00,80.8924
411.20,80.9584
411.40,80.9466
411.60,81.0116
411.80,80.9267
412.00,81.0160
412.20,81.0539
412.40,81.0356
412.60,81.0175
412.80,81.1888
413.00,81.1577
413.20,81.0902
413.40,81.2054
413.60,81.2173
413.80,81.2119
414.00,81.1889
414.20,81.2085
414.40,81.2723
414.60,81.2658
414.80,81.2436
415.00,81.2564
415.20,81.3140
415.40,81.3278
415.60,81.3803
415.80,81.3584
416.00,81.3301
416.20,81.3849
416.40,81.3778
416.60,81.4071
416.80,81.3916
417.00,81.4843
417.20,81.5900
417.40,81.4961
417.60,81.4256
417.80,81.4770
418.00,81.4604
418.20,81.5757
418.40,81.5266
418.60,81.5295
418.80,81.5802
419.00,81.5197
419.20,81.5922
419.40,81.5695
419.60,81.6505
419.80,81.5322
420.00,81.5831
420.20,81.6012
420.40,81.6512
420.60,81.6784
420.80,81.6803
421.00,81.6572
421.20,81.6766
421.40,81.6522
421.60,81.6703
421.80,81.7177
422.00,81.6737
422.20,81.7045
422.40,81.7274
422.60,81.6999
422.80,81.7749
423.00,81.7863
423.20,81.7814
423.40,81.7530
423.60,81.8151
423.80,81.7657
424.00,81.8708
424.20,81.8430
424.40,81.8631
424.60,81.8196
424.80,81.8394
425.00,81.8730
425.20,81.8569
425.40,81.8855
425.60,81.8601
425.80,81.8939
426.00,81.8996
426.20,81.9143
426.40,81.9147
426.60,81.8682
426.80,81.8899
427.00,81.9056
427.20,81.9646
427.40,81.9798
427.60,81.9235
427.80,81.9327
428.00,82.0049
428.20,81.9951
428.40,81.9531
428.60,81.9867
428.80,81.9555
429.00,82.0952
429.20,81.9438
429.40,82.0087
429.60,82.0465
429.80,82.0090
430.00,82.0536
430.20,82.0113
430.40,82.0420
430.60,82.0385
430.80,82.0322
431.00,81.9781
431.20,82.0055
431.40,82.1247
431.60,82.0650
431.80,82.1314
432.00,82.0753
432.20,82.0967
432.40,82.1189
432.60,82.1716
432.80,82.0949
433.00,82.1415
433.20,82.1416
433.40,82.1477
433.60,82.1912
433.80,82.1860
434.00,82.2108
434.20,82.1567
434.40,82.1641
434.60,82.1430
434.80,82.1711
435.00,82.2168
435.20,82.1704
435.40,82.1278
435.60,82.1452
435.80,82.1612
436.00,82.1578
436.20,82.1472
436.40,82.1468
436.60,82.2268
436.80,82.2050
437.00,82.2281
437.20,82.2107
437.40,82.2367
437.60,82.2247
437.80,82.2444
438.00,82.1973
438.20,82.2369
438.40,82.2287
438.60,82.2038
438.80,82.1863
439.00,82.2414
439.20,82.2200
439.40,82.2291
439.60,82.1809
439.80,82.2682
440.00,82.2318
440.20,82.2655
440.40,82.2172
440.60,82.2942
440.80,82.2316
441.00,82.2069
441.20,82.2690
441.40,82.1944
441.60,82.2028
441.80,82.1839
442.00,82.1932
442.20,82.2845
442.40,82.2546
442.60,82.2238
442.80,82.2769
443.00,82.2102
443.20,82.2349
443.40,82.2040
443.60,82.2613
443.80,82.2218
444.00,82.3025
444.20,82.2430
444.40,82.2470
444.60,82.2256
444.80,82.2771
445.00,82.3296
445.20,82.2946
445.40,82.2350
445.60,82.2660
445.80,82.3334
446.00,82.2661
446.20,82.2941
446.40,82.2905
446.60,82.2750
446.80,82.2677
447.00,82.2641
447.20,82.2883
447.40,82.3038
447.60,82.2814
447.80,82.2389
448.00,82.3144
448.20,82.3090
448.40,82.2704
448.60,82.2182
448.80,82.2580
449.00,82.2182
449.20,82.2232
449.40,82.1963
449.60,82.1685
449.80,82.1091
450.00,82.0687
450.20,82.1361
450.40,82.0268
450.60,82.0417
450.80,82.0210
451.00,82.0871
451.20,82.0360
451.40,82.0078
451.60,82.0018
451.80,81.8488
452.00,81.9035
452.20,81.9721
452.40,82.0015
452.60,81.9045
452.80,81.9724
453.00,81.9668
453.20,81.9392
453.40,81.9639
453.60,82.0098
453.80,81.9347
454.00,81.8954
454.20,81.8944
454.40,81.8869
454.60,81.8827
454.80,81.8263
455.00,81.7982
455.20,81.7512
455.40,81.7287
455.60,81.6680
455.80,81.8251
456.00,81.8108
456.20,81.7289
456.40,81.7954
456.60,81.7103
456.80,81.6970
457.00,81.7724
457.20,81.6766
457.40,81.7659
457.60,81.5742
457.80,81.6908
458.00,81.6967
458.20,81.6228
458.40,81.6097
458.60,81.6140
458.80,81.5893
459.00,81.5810
459.20,81.5683
459.40,81.5970
459.60,81.6557
459.80,81.5689
460.00,81.6533
460.20,81.6420
460.40,81.6268
460.60,81.6227
460.80,81.6338
461.00,81.6451
461.20,81.6526
461.40,81.5756
461.60,81.5653
461.80,81.5903
462.00,81.5391
462.20,81.6505
462.40,81.5984
462.60,81.5523
462.80,81.5423
463.00,81.5483
463.20,81.5854
463.40,81.5872
463.60,81.6111
463.80,81.5968
464.00,81.5335
464.20,81.6516
464.40,81.6105
464.60,81.6238
464.80,81.6094
465.00,81.7358
465.20,81.6494
465.40,81.6412
465.60,81.7145
465.80,81.6666
466.00,81.6714
466.20,81.7641
466.40,81.6989
466.60,81.7563
466.80,81.8719
467.00,81.8227
467.20,81.8300
467.40,81.8481
467.60,81.8819
467.80,81.8815
468.00,81.8948
468.20,81.8520
468.40,81.9704
468.60,81.9357
468.80,81.9698
469.00,81.9986
469.20,82.0379
469.40,82.0042
469.60,82.0600
469.80,82.0889
470.00,82.1685
470.20,82.1268
470.40,82.1132
470.60,82.2442
470.80,82.2356
471.00,82.2311
471.20,82.2381
471.40,82.2236
471.60,82.3737
471.80,82.3629
472.00,82.3277
472.20,82.4201
472.40,82.5223
472.60,82.5174
472.80,82.5561
473.00,82.5135
473.20,82.5858
473.40,82.6213
473.60,82.6293
473.80,82.6902
474.00,82.6702
474.20,82.6951
474.40,82.6823
474.60,82.7056
474.80,82.7846
475.00,82.7963
475.20,82.7318
475.40,82.8089
475.60,82.7818
475.80,82.8921
476.00,82.8295
476.20,82.8676
476.40,82.8959
476.60,82.9748
476.80,83.0141
477.00,82.9723
477.20,82.9848
477.40,83.1398
477.60,83.0474
477.80,83.0277
478.00,83.0856
478.20,83.0581
478.40,83.2205
478.60,83.2081
478.80,83.1894
479.00,83.1944
479.20,83.1785
479.40,83.2408
479.60,83.2422
479.80,83.3626
480.00,83.2478
480.20,83.3203
480.40,83.3012
480.60,83.3555
480.80,83.3442
481.00,83.4037
481.20,83.3839
481.40,83.4564
481.60,83.4487
481.80,83.4855
482.00,83.4245
482.20,83.4133
482.40,83.4981
482.60,83.5681
482.80,83.5229
483.00,83.5707
483.20,83.6062
483.40,83.6481
483.60,83.7041
483.80,83.7457
484.00,83.8000
484.20,83.8209
484.40,83.8366
484.60,83.8090
484.80,83.7802
485.00,83.7839
485.20,83.7914
485.40,83.8573
485.60,83.8310
485.80,83.8360
486.00,83.8187
486.20,83.8810
486.40,83.8488
486.60,83.8619
486.80,83.9057
487.00,83.8784
487.20,83.9458
487.40,83.9948
487.60,83.9272
487.80,83.9486
488.00,83.9472
488.20,83.9186
488.40,83.9696
488.60,83.9592
488.80,83.9518
489.00,83.9582
489.20,83.9312
489.40,83.8990
489.60,83.8930
489.80,83.8846
490.00,83.8948
490.20,83.9426
490.40,83.9149
490.60,83.9827
490.80,83.9352
491.00,83.9750
491.20,83.9860
491.40,83.9872
491.60,84.0303
491.80,84.0171
492.00,84.0335
492.20,84.0016
492.40,83.9947
492.60,83.9988
492.80,83.9714
493.00,84.0490
493.20,84.0526
493.40,84.0260
493.60,84.0349
493.80,84.0882
494.00,84.2124
494.20,84.0778
494.40,84.1450
494.60,84.0604
494.80,84.1191
495.00,84.1375
495.20,84.0807
495.40,84.1206
495.60,84.1242
495.80,84.0600
496.00,84.0255
496.20,83.9975
496.40,83.9967
496.60,84.0200
496.80,84.1077
497.00,84.1076
497.20,84.1106
497.40,84.0739
497.60,84.0405
497.80,84.0238
498.00,84.0246
498.20,84.0637
498.40,84.1005
498.60,84.0592
498.80,84.0550
499.00,84.0741
499.20,84.1563
499.40,84.1237
499.60,84.1463
499.80,84.0728
500.00,84.0942
500.20,84.0678
500.40,84.0970
500.60,83.9523
500.80,83.9541
501.00,84.0060
501.20,84.0391
501.40,84.0033
501.60,83.9496
501.80,84.0519
502.00,84.0996
502.20,83.9706
502.40,84.0141
502.60,84.0819
502.80,83.9125
503.00,84.0473
503.20,84.0225
503.40,83.9300
503.60,84.0204
503.80,84.0397
504.00,83.8565
504.20,84.0326
504.40,83.9228
504.60,83.9779
504.80,83.9314
505.00,83.9066
505.20,83.9547
505.40,83.9939
505.60,83.8345
505.80,84.0350
506.00,83.8421
506.20,83.8672
506.40,83.8643
506.60,83.8253
506.80,83.8399
507.00,83.9179
507.20,83.9420
507.40,83.9214
507.60,83.8243
507.80,83.8126
508.00,83.8848
508.20,83.8249
508.40,83.9257
508.60,83.7336
508.80,83.8492
509.00,83.7009
509.20,83.8863
509.40,83.7750
509.60,83.8314
509.80,83.8175
510.00,83.7459
510.20,83.8575
510.40,83.8625
510.60,83.8078
510.80,83.7723
511.00,83.8099
511.20,83.7348
511.40,83.7812
511.60,83.7325
511.80,83.7420
512.00,83.7194
512.20,83.7722
512.40,83.6448
512.60,83.8000
512.80,83.7073
513.00,83.7133
513.20,83.7238
513.40,83.7325
513.60,83.6056
513.80,83.6933
514.00,83.5600
514.20,83.5326
514.40,83.6653
514.60,83.6632
514.80,83.4697
515.00,83.6640
515.20,83.6983
515.40,83.5935
515.60,83.5368
515.80,83.6520
516.00,83.6504
516.20,83.4948
516.40,83.4230
516.60,83.4499
516.80,83.4149
517.00,83.4707
517.20,83.4902
517.40,83.4958
517.60,83.5590
517.80,83.4224
518.00,83.5153
518.20,83.4119
518.40,83.4511
518.60,83.3710
518.80,83.3522
519.00,83.3794
519.20,83.3597
519.40,83.2629
519.60,83.4672
519.80,83.3112
520.00,83.3340
520.20,83.3564
520.40,83.2653
520.60,83.3069
520.80,83.3022
521.00,83.4135
521.20,83.3481
521.40,83.2384
521.60,83.2168
521.80,83.2477
522.00,83.1696
522.20,83.2808
522.40,83.1761
522.60,83.1333
522.80,83.2605
523.00,83.0957
523.20,83.1847
523.40,83.1502
523.60,83.1656
523.80,83.0144
524.00,82.9242
524.20,83.0725
524.40,83.1283
524.60,83.0808
524.80,83.0306
525.00,83.0677
525.20,82.9903
525.40,83.1175
525.60,82.9638
525.80,82.9696
526.00,82.9679
526.20,82.9833
526.40,83.0016
526.60,83.0627
526.80,83.0063
527.00,83.0243
527.20,82.9590
527.40,83.0179
527.60,82.9653
527.80,82.9362
528.00,82.8849
528.20,82.9338
528.40,82.9343
528.60,82.9596
528.80,82.9627
529.00,82.9321
529.20,82.9357
529.40,82.9761
529.60,82.9505
529.80,82.9902
530.00,82.9936
530.20,82.9929
530.40,82.9849
530.60,83.0018
530.80,82.8965
531.00,82.8875
531.20,82.8431
531.40,82.8973
531.60,82.8743
531.80,82.8782
532.00,82.8915
532.20,82.8384
532.40,82.8755
532.60,82.7959
532.80,82.8946
533.00,82.8506
533.20,82.8992
533.40,82.8238
533.60,82.7588
533.80,82.8703
534.00,82.8034
534.20,82.8693
534.40,82.8636
534.60,82.8649
534.80,82.9714
535.00,82.9147
535.20,82.8991
535.40,82.9082
535.60,82.7656
535.80,83.0084
536.00,82.9235
536.20,82.9044
536.40,82.9458
536.60,82.9338
536.80,82.9434
537.00,82.8193
537.20,82.9127
537.40,82.9351
537.60,83.0137
537.80,82.9653
538.00,83.0234
538.20,82.9965
538.40,82.9831
538.60,83.0135
538.80,83.1037
539.00,83.0199
539.20,82.9742
539.40,82.9558
539.60,82.9950
539.80,83.0698
540.00,82.9475
540.20,82.8642
540.40,83.0082
540.60,83.0895
540.80,83.0199
541.00,83.0562
541.20,83.1812
541.40,83.2015
541.60,83.1759
541.80,83.1538
542.00,83.2367
542.20,83.1853
542.40,83.1944
542.60,83.1919
542.80,83.1765
543.00,83.2505
543.20,83.2799
543.40,83.3105
543.60,83.3523
543.80,83.3268
544.00,83.3662
544.20,83.2722
544.40,83.2905
544.60,83.4268
544.80,83.4513
545.00,83.3551
545.20,83.3799
545.40,83.4003
545.60,83.4857
545.80,83.4706
546.00,83.4205
546.20,83.4110
546.40,83.4224
546.60,83.5260
546.80,83.5295
547.00,83.5485
547.20,83.6126
547.40,83.5617
547.60,83.5940
547.80,83.6440
548.00,83.6950
548.20,83.6078
548.40,83.7020
548.60,83.6589
548.80,83.6031
549.00,83.6809
549.20,83.6871
549.40,83.6762
549.60,83.7180
549.80,83.7718
550.00,83.7452
550.20,83.7140
550.40,83.7724
550.60,83.8363
550.80,83.7903
551.00,83.7983
551.20,83.8545
551.40,83.8623
551.60,83.9462
551.80,83.9794
552.00,84.0167
552.20,83.9363
552.40,84.1597
552.60,83.9314
552.80,84.0043
553.00,84.0013
553.20,84.0595
553.40,84.0973
553.60,84.0700
553.80,84.1649
554.00,84.1053
554.20,84.0779
554.40,84.0867
554.60,84.1509
554.80,84.1826
555.00,84.4637
555.20,84.1443
555.40,84.2542
555.60,84.1929
555.80,84.2162
556.00,84.2079
556.20,84.1857
556.40,84.3702
556.60,84.2743
556.80,84.4439
557.00,84.3579
557.20,84.3838
557.40,84.4270
557.60,84.4037
557.80,84.4338
558.00,84.4233
558.20,84.4854
558.40,84.6169
558.60,84.5989
558.80,84.4843
559.00,84.4466
559.20,84.4736
559.40,84.4984
559.60,84.4299
559.80,84.5936
560.00,84.6839
560.20,84.6747
560.40,84.7810
560.60,84.5912
560.80,84.6768
561.00,84.6683
561.20,84.7536
561.40,84.7397
561.60,84.7738
561.80,84.7013
562.00,84.7566
562.20,84.6609
562.40,84.5487
562.60,84.8554
562.80,84.7012
563.00,84.8725
563.20,84.6763
563.40,84.8215
563.60,84.8714
563.80,84.7397
564.00,84.8047
564.20,84.8289
564.40,85.0018
564.60,85.0100
564.80,84.7405
565.00,85.0297
565.20,84.9874
565.40,84.9573
565.60,84.8742
565.80,85.0542
566.00,85.0049
566.20,85.0263
566.40,85.0149
566.60,85.0303
566.80,85.0298
567.00,85.0612
567.20,85.0384
567.40,84.9251
567.60,85.0038
567.80,85.0642
568.00,85.0090
568.20,85.0457
568.40,85.1245
568.60,85.0691
568.80,85.1012
569.00,85.0651
569.20,85.2034
569.40,85.0696
569.60,85.1644
569.80,85.1656
570.00,85.1975
570.20,85.2268
570.40,85.2667
570.60,85.1214
570.80,85.0668
571.00,85.1590
571.20,85.1811
571.40,85.3602
571.60,85.2430
571.80,85.2456
572.00,85.3445
572.20,85.1897
572.40,85.1769
572.60,85.0314
572.80,85.1484
573.00,85.2388
573.20,85.3618
573.40,85.1643
573.60,85.3209
573.80,85.2374
574.00,85.2727
574.20,85.3094
574.40,85.2561
574.60,85.3104
574.80,85.2955
575.00,85.3007
575.20,85.2851
575.40,85.4306
575.60,85.3926
575.80,85.3942
576.00,85.3094
576.20,85.4165
576.40,85.4496
576.60,85.3029
576.80,85.4350
577.00,85.4733
577.20,85.3545
577.40,85.3810
577.60,85.4727
577.80,85.5344
578.00,85.3818
578.20,85.6030
578.40,85.4604
578.60,85.5036
578.80,85.5047
579.00,85.5222
579.20,85.3984
579.40,85.6010
579.60,85.4951
579.80,85.5472
580.00,85.5282
580.20,85.6224
580.40,85.4107
580.60,85.5148
580.80,85.5196
581.00,85.5366
581.20,85.6601
581.40,85.5804
581.60,85.4885
581.80,85.4828
582.00,85.6012
582.20,85.5768
582.40,85.3850
582.60,85.6144
582.80,85.6990
583.00,85.6333
583.20,85.4251
583.40,85.8124
583.60,85.6631
583.80,85.8892
584.00,85.4263
584.20,85.7383
584.40,85.5348
584.60,85.7109
584.80,85.7001
585.00,85.5751
585.20,85.7619
585.40,85.6663
585.60,85.3669
585.80,85.5669
586.00,85.5559
586.20,85.7687
586.40,85.7386
586.60,85.6445
586.80,85.7814
587.00,85.4825
587.20,85.9192
587.40,85.8303
587.60,85.6901
587.80,85.7913
588.00,86.0567
588.20,85.8317
588.40,85.9286
588.60,85.9109
588.80,85.9592
589.00,85.6668
589.20,85.7927
589.40,85.8003
589.60,85.7139
589.80,86.0259
590.00,85.8557
590.20,85.8114
590.40,85.8070
590.60,85.7305
590.80,85.7073
591.00,85.8692
591.20,85.8324
591.40,85.8747
591.60,85.9204
591.80,85.7860
592.00,85.8814
592.20,85.7654
592.40,85.7902
592.60,85.7959
592.80,85.8555
593.00,85.8713
593.20,85.9093
593.40,85.8552
593.60,85.7297
593.80,85.9570
594.00,85.7487
594.20,85.8322
594.40,85.8222
594.60,85.8356
594.80,85.8806
595.00,85.9637
595.20,85.8624
595.40,85.7680
595.60,85.9240
595.80,86.0137
596.00,85.8754
596.20,86.0736
596.40,85.9335
596.60,85.9023
596.80,86.0393
597.00,85.9431
597.20,85.9505
597.40,85.9629
597.60,85.8799
597.80,86.0863
598.00,85.9925
598.20,86.0382
598.40,86.0222
598.60,86.0354
598.80,85.9698
599.00,86.0096
599.20,85.9562
599.40,86.1531
599.60,86.0868
599.80,86.1129
600.00,86.0317
600.20,86.1991
600.40,85.9303
600.60,86.0810
600.80,86.2002
601.00,86.1922
601.20,86.1930
601.40,86.0579
601.60,86.2402
601.80,85.9964
602.00,86.2164
602.20,85.9741
602.40,86.1728
602.60,86.0338
602.80,86.0864
603.00,86.0825
603.20,86.1198
603.40,86.0424
603.60,86.0662
603.80,85.9531
604.00,86.0317
604.20,86.1939
604.40,86.0485
604.60,85.9517
604.80,86.0488
605.00,86.0467
605.20,86.0887
605.40,85.9861
605.60,86.0293
605.80,86.0948
606.00,86.1073
606.20,86.1500
606.40,86.1735
606.60,86.2194
606.80,86.1325
607.00,86.1307
607.20,86.2260
607.40,86.2515
607.60,86.1947
607.80,86.1779
608.00,86.3225
608.20,86.2403
608.40,86.1586
608.60,86.1767
608.80,86.1969
609.00,86.2129
609.20,86.2573
609.40,86.2942
609.60,86.2085
609.80,86.2861
610.00,86.2415
610.20,86.2713
610.40,86.2164
610.60,86.2729
610.80,86.2488
611.00,86.2787
611.20,86.2279
611.40,86.2105
611.60,86.2912
611.80,86.3757
612.00,86.2334
612.20,86.2955
612.40,86.2764
612.60,86.1856
612.80,86.3003
613.00,86.2885
613.20,86.3374
613.40,86.2818
613.60,86.4766
613.80,86.2932
614.00,86.4025
614.20,86.3844
614.40,86.3670
614.60,86.3063
614.80,86.4115
615.00,86.4069
615.20,86.4006
615.40,86.3608
615.60,86.3395
615.80,86.4157
616.00,86.4363
616.20,86.4987
616.40,86.4394
616.60,86.4796
616.80,86.3780
617.00,86.4557
617.20,86.4477
617.40,86.4314
617.60,86.4591
617.80,86.5269
618.00,86.3422
618.20,86.3542
618.40,86.4434
618.60,86.4354
618.80,86.4380
619.00,86.3866
619.20,86.4282
619.40,86.4746
619.60,86.3655
619.80,86.4336
620.00,86.6087
620.20,86.6047
620.40,86.4696
620.60,86.5688
620.80,86.3679
621.00,86.4996
621.20,86.3535
621.40,86.4661
621.60,86.3172
621.80,86.4843
622.00,86.4966
622.20,86.5533
622.40,86.5228
622.60,86.4386
622.80,86.5551
623.00,86.3646
623.20,86.5681
623.40,86.4479
623.60,86.3882
623.80,86.3537
624.00,86.4802
624.20,86.5291
624.40,86.5408
624.60,86.3512
624.80,86.5678
625.00,86.5342
625.20,86.5311
625.40,86.5564
625.60,86.4522
625.80,86.3322
626.00,86.4458
626.20,86.5137
626.40,86.6057
626.60,86.3813
626.80,86.3400
627.00,86.4891
627.20,86.6461
627.40,86.6537
627.60,86.5244
627.80,86.5083
628.00,86.5617
628.20,86.4605
628.40,86.5398
628.60,86.5764
628.80,86.5757
629.00,86.5607
629.20,86.4492
629.40,86.6156
629.60,86.6134
629.80,86.5521
630.00,86.5672
630.20,86.6633
630.40,86.4732
630.60,86.4972
630.80,86.7172
631.00,86.6193
631.20,86.6102
631.40,86.7932
631.60,86.5827
631.80,86.6168
632.00,86.7137
632.20,86.6149
632.40,86.5404
632.60,86.6748
632.80,86.5782
633.00,86.7640
633.20,86.5882
633.40,86.6555
633.60,86.4268
633.80,86.6716
634.00,86.6203
634.20,86.6444
634.40,86.4859
634.60,86.6112
634.80,86.5788
635.00,86.6645
635.20,86.5504
635.40,86.7321
635.60,86.6627
635.80,86.6021
636.00,86.6591
636.20,86.6509
636.40,86.8407
636.60,86.6906
636.80,86.5983
637.00,86.6560
637.20,86.5434
637.40,86.5359
637.60,86.5928
637.80,86.7278
638.00,86.9130
638.20,86.7376
638.40,86.7204
638.60,86.6816
638.80,86.7232
639.00,86.7975
639.20,86.7060
639.40,86.6019
639.60,86.7131
639.80,86.8124
640.00,86.7159
640.20,86.7829
640.40,86.5971
640.60,86.8521
640.80,86.6276
641.00,86.5319
641.20,86.6520
641.40,86.8121
641.60,86.5695
641.80,86.6684
642.00,86.5750
642.20,86.5872
642.40,86.8088
642.60,86.7208
642.80,86.6554
643.00,86.6175
643.20,86.7072
643.40,86.6239
643.60,86.6377
643.80,86.6246
644.00,86.7896
644.20,86.6501
644.40,86.6992
644.60,86.8156
644.80,86.6992
645.00,86.8066
645.20,86.7586
645.40,86.6967
645.60,86.7542
645.80,86.7438
646.00,87.0680
646.20,86.7893
646.40,86.5931
646.60,86.7218
646.80,86.6711
647.00,86.6967
647.20,86.8928
647.40,86.8569
647.60,86.8150
647.80,86.8911
648.00,87.0404
648.20,86.5935
648.40,86.7629
648.60,86.7195
648.80,86.8957
649.00,86.8978
649.20,86.8957
649.40,86.8089
649.60,86.7118
649.80,86.8700
650.00,86.7623
650.20,86.7207
650.40,86.6976
650.60,86.9150
650.80,86.8575
651.00,86.9582
651.20,86.6922
651.40,86.8344
651.60,86.8992
651.80,86.8749
652.00,87.0156
652.20,86.6300
652.40,86.8420
652.60,86.8285
652.80,86.8818
653.00,86.7102
653.20,86.7615
653.40,86.6673
653.60,86.8019
653.80,86.8898
654.00,86.8270
654.20,86.5563
654.40,86.7661
654.60,87.0722
654.80,86.7220
655.00,86.7167
655.20,87.0331
655.40,87.0632
655.60,86.8734
655.80,87.0261
656.00,86.9592
656.20,86.8321
656.40,86.9299
656.60,87.0444
656.80,86.9225
657.00,86.9337
657.20,86.9139
657.40,87.0515
657.60,86.8525
657.80,86.9317
658.00,86.8383
658.20,86.8203
658.40,86.9340
658.60,86.9882
658.80,86.9075
659.00,86.8977
659.20,87.0899
659.40,86.9033
659.60,86.9851
659.80,86.9649
660.00,86.8415
660.20,86.7846
660.40,86.9579
660.60,86.8724
660.80,86.9186
661.00,87.0861
661.20,86.9880
661.40,87.0179
661.60,87.0532
661.80,86.9182
662.00,87.2070
662.20,87.0407
662.40,87.0724
662.60,86.8079
662.80,86.7660
663.00,86.9224
663.20,87.0003
663.40,87.0592
663.60,86.7859
663.80,87.0746
664.00,86.9560
664.20,87.0109
664.40,86.7513
664.60,86.9954
664.80,87.3456
665.00,86.9713
665.20,87.0057
665.40,86.8368
665.60,87.0449
665.80,87.1741
666.00,86.8911
666.20,86.8013
666.40,86.9921
666.60,86.8929
666.80,86.8603
667.00,86.9537
667.20,86.9201
667.40,86.9349
667.60,86.7411
667.80,86.6250
668.00,86.9052
668.20,86.9072
668.40,86.9055
668.60,86.9912
668.80,87.1075
669.00,86.6841
669.20,86.6772
669.40,87.1910
669.60,86.7470
669.80,86.5952
670.00,86.9392
670.20,86.5217
670.40,86.8078
670.60,86.6207
670.80,86.6449
671.00,86.4413
671.20,86.5898
671.40,86.8905
671.60,86.4190
671.80,87.0387
672.00,87.0185
672.20,86.8778
672.40,86.9891
672.60,86.6639
672.80,86.6063
673.00,86.5471
673.20,86.7101
673.40,86.6641
673.60,86.9215
673.80,86.9734
674.00,86.6884
674.20,86.6442
674.40,86.6777
674.60,86.8865
674.80,86.8056
675.00,86.7156
675.20,86.7032
675.40,86.6218
675.60,86.7255
675.80,86.3940
676.00,86.5768
676.20,86.7306
676.40,86.8769
676.60,86.6250
676.80,86.3413
677.00,86.7201
677.20,86.3673
677.40,86.6052
677.60,86.2744
677.80,86.2499
678.00,86.5579
678.20,86.4754
678.40,86.5620
678.60,86.6154
678.80,86.5150
679.00,86.5702
679.20,86.5492
679.40,86.3088
679.60,86.5992
679.80,86.3320
680.00,86.2453
680.20,86.5999
680.40,86.5288
680.60,86.3072
680.80,86.3608
681.00,86.3293
681.20,86.4854
681.40,86.0884
681.60,86.3833
681.80,86.2086
682.00,86.2728
682.20,86.1711
682.40,86.2187
682.60,86.1027
682.80,85.9967
683.00,86.1006
683.20,86.1790
683.40,85.7875
683.60,86.0837
683.80,86.1698
684.00,86.2107
684.20,86.0835
684.40,86.0940
684.60,86.0916
684.80,86.2069
685.00,86.0772
685.20,86.1672
685.40,85.9753
685.60,86.0550
685.80,86.0051
686.00,86.0507
686.20,85.9251
686.40,85.8086
686.60,85.9884
686.80,85.6860
687.00,86.0032
687.20,85.9288
687.40,85.8956
687.60,86.0143
687.80,86.1733
688.00,85.9473
688.20,86.0539
688.40,85.8276
688.60,85.6925
688.80,85.8273
689.00,85.9743
689.20,85.9156
689.40,85.9750
689.60,85.8805
689.80,85.6733
690.00,85.6542
690.20,85.9998
690.40,85.6873
690.60,85.6832
690.80,85.6785
691.00,85.6668
691.20,85.5343
691.40,85.7825
691.60,85.6396
691.80,85.5517
692.00,85.4303
692.20,85.7289
692.40,85.5817
692.60,85.6929
692.80,85.5873
693.00,85.4688
693.20,85.5992
693.40,85.4336
693.60,85.1386
693.80,85.5429
694.00,85.4313
694.20,85.3551
694.40,85.3475
694.60,85.3787
694.80,85.2436
695.00,85.1871
695.20,85.1873
695.40,85.4220
695.60,85.5395
695.80,85.3449
696.00,85.2590
696.20,85.3888
696.40,85.6024
696.60,85.4268
696.80,85.1627
697.00,85.2763
697.20,85.4298
697.40,85.4093
697.60,85.1886
697.80,85.4396
698.00,85.2030
698.20,85.4312
698.40,85.3441
698.60,85.3506
698.80,85.2979
699.00,85.4248
699.20,85.2150
699.40,85.2810
699.60,85.4072
699.80,85.2540
700.00,85.5089
700.20,85.1847
700.40,85.3865
700.60,85.3938
700.80,85.4282
701.00,85.3215
701.20,85.5379
701.40,85.5031
701.60,85.6369
701.80,85.5645
702.00,85.5244
702.20,85.2430
702.40,85.2326
702.60,85.4062
702.80,85.6402
703.00,85.6662
703.20,85.5931
703.40,85.5510
703.60,85.7468
703.80,85.7889
704.00,85.6601
704.20,85.5364
704.40,85.6618
704.60,85.6997
704.80,85.5191
705.00,85.6586
705.20,85.5309
705.40,85.5654
705.60,85.7382
705.80,85.8406
706.00,85.9573
706.20,85.9039
706.40,85.7446
706.60,85.7310
706.80,85.9182
707.00,85.9432
707.20,85.7240
707.40,85.9563
707.60,86.0481
707.80,85.8186
708.00,85.6368
708.20,85.8706
708.40,86.0578
708.60,86.0014
708.80,86.3118
709.00,86.0593
709.20,85.9290
709.40,86.3497
709.60,86.2307
709.80,86.3773
710.00,86.0741
710.20,86.3256
710.40,86.2281
710.60,86.2627
710.80,86.2185
711.00,86.2743
711.20,86.2046
711.40,86.2630
711.60,86.1624
711.80,86.3221
712.00,86.2560
712.20,86.3615
712.40,86.1767
712.60,86.4098
712.80,86.4630
713.00,86.3584
713.20,86.5626
713.40,86.5771
713.60,86.5666
713.80,86.6577
714.00,86.7671
714.20,86.6897
714.40,86.9303
714.60,86.7079
714.80,86.6856
715.00,86.8190
715.20,86.7306
715.40,86.7271
715.60,86.9555
715.80,86.7821
716.00,86.7455
716.20,86.8357
716.40,86.8568
716.60,86.8534
716.80,86.9240
717.00,86.9806
717.20,86.9273
717.40,86.9787
717.60,86.8697
717.80,86.8135
718.00,86.9710
718.20,87.1691
718.40,87.1000
718.60,86.9141
718.80,86.9860
719.00,87.1305
719.20,87.1278
719.40,87.0973
719.60,87.2182
719.80,87.1790
720.00,87.2695
720.20,87.3007
720.40,87.1541
720.60,87.3755
720.80,87.0283
721.00,87.4198
721.20,87.3857
721.40,87.2496
721.60,87.2936
721.80,87.4373
722.00,87.3743
722.20,87.3211
722.40,87.1736
722.60,87.2505
722.80,87.3319
723.00,87.2624
723.20,87.5693
723.40,87.2798
723.60,87.3884
723.80,87.3699
724.00,87.3580
724.20,87.2302
724.40,87.2225
724.60,87.2972
724.80,87.4052
725.00,87.3805
725.20,87.0756
725.40,87.4613
725.60,87.6694
725.80,87.4913
726.00,87.4047
726.20,87.6844
726.40,87.5954
726.60,87.5201
726.80,87.6881
727.00,87.4930
727.20,87.5075
727.40,87.4755
727.60,87.6224
727.80,87.6090
728.00,87.5556
728.20,87.7788
728.40,87.4930
728.60,87.5228
728.80,87.5144
729.00,87.7201
729.20,87.6017
729.40,87.5497
729.60,87.5627
729.80,87.6217
730.00,87.5670
730.20,87.6463
730.40,87.6423
730.60,87.8658
730.80,87.6308
731.00,87.6157
731.20,87.7686
731.40,87.5074
731.60,87.6383
731.80,87.6305
732.00,87.7461
732.20,87.7035
732.40,87.7215
732.60,87.7430
732.80,87.6376
733.00,87.4983
733.20,87.7478
733.40,87.5798
733.60,87.7255
733.80,87.6127
734.00,87.6543
734.20,87.8723
734.40,87.7950
734.60,87.5797
734.80,87.9084
735.00,87.8409
735.20,87.5432
735.40,87.7989
735.60,87.7869
735.80,87.5832
736.00,87.7155
736.20,87.6999
736.40,87.7032
736.60,87.8341
736.80,87.9502
737.00,87.7452
737.20,87.9236
737.40,87.9940
737.60,87.9001
737.80,87.8015
738.00,87.6743
738.20,87.8405
738.40,88.1447
738.60,87.7107
738.80,87.6307
739.00,88.0111
739.20,87.8147
739.40,87.8444
739.60,87.6120
739.80,87.8268
740.00,87.9651
740.20,87.7916
740.40,87.6935
740.60,87.7525
740.80,87.8255
741.00,88.0071
741.20,87.8574
741.40,87.8269
741.60,87.9004
741.80,88.0822
742.00,87.9562
742.20,87.8614
742.40,87.8093
742.60,88.0060
742.80,87.6074
743.00,87.7332
743.20,87.8113
743.40,87.6561
743.60,87.8457
743.80,87.6674
744.00,87.7898
744.20,87.8715
744.40,87.9980
744.60,87.7548
744.80,87.9312
745.00,87.9572
745.20,87.7991
745.40,88.0142
745.60,88.1990
745.80,88.2310
746.00,87.9762
746.20,88.1075
746.40,87.8757
746.60,88.0904
746.80,87.8376
747.00,87.9622
747.20,88.0778
747.40,87.8192
747.60,88.0051
747.80,87.8544
748.00,87.8347
748.20,88.0647
748.40,88.0466
748.60,88.0830
748.80,87.9903
749.00,88.0697
749.20,87.9007
749.40,87.9406
749.60,88.0312
749.80,88.2563
750.00,88.1425
750.20,87.7554
750.40,87.8778
750.60,87.8681
750.80,87.7181
751.00,88.0165
751.20,88.1566
751.40,87.8545
751.60,87.9911
751.80,87.9012
752.00,87.8177
752.20,88.0706
752.40,88.1578
752.60,88.0141
752.80,88.2171
753.00,87.9585
753.20,88.0188
753.40,87.9957
753.60,88.0810
753.80,87.9282
754.00,87.9045
754.20,87.6889
754.40,87.8219
754.60,87.8607
754.80,87.8282
755.00,87.7489
755.20,87.9460
755.40,87.8963
755.60,87.7274
755.80,88.0897
756.00,87.7649
756.20,87.7788
756.40,88.0282
756.60,87.6489
756.80,87.8958
757.00,87.8931
757.20,88.0328
757.40,88.1799
757.60,88.1632
757.80,88.0078
758.00,87.6112
758.20,87.7561
758.40,88.0611
758.60,87.8110
758.80,87.7068
759.00,88.0571
759.20,87.9554
759.40,88.4157
759.60,87.8668
759.80,87.9815
760.00,88.1150
760.20,87.7868
760.40,88.1545
760.60,88.0234
760.80,88.0230
761.00,87.8973
761.20,88.1206
761.40,88.0038
761.60,88.0817
761.80,88.0666
762.00,88.0630
762.20,87.9842
762.40,87.7558
762.60,88.3567
762.80,88.0889
763.00,88.0193
763.20,88.1546
763.40,88.1790
763.60,88.0609
763.80,88.1831
764.00,87.9001
764.20,87.7428
764.40,87.9261
764.60,88.0917
764.80,87.9479
765.00,88.2335
765.20,88.1363
765.40,88.1301
765.60,87.8917
765.80,87.8522
766.00,88.1016
766.20,88.2663
766.40,87.8993
766.60,88.0471
766.80,88.1419
767.00,87.8228
767.20,87.8520
767.40,87.9794
767.60,88.1272
767.80,88.0817
768.00,87.8879
768.20,88.2102
768.40,88.0633
768.60,87.8787
768.80,88.0756
769.00,87.9729
769.20,87.9581
769.40,87.9993
769.60,87.8613
769.80,87.7824
770.00,87.8522
770.20,87.8593
770.40,87.7151
770.60,88.1406
770.80,87.8824
771.00,87.8951
771.20,88.0285
771.40,88.1003
771.60,87.9232
771.80,88.1716
772.00,88.0328
772.20,88.1718
772.40,87.6708
772.60,87.9299
772.80,88.1118
773.00,88.0639
773.20,87.8775
773.40,88.0474
773.60,88.1199
773.80,87.9557
774.00,88.0554
774.20,88.0187
774.40,87.9785
774.60,88.3101
774.80,88.2505
775.00,87.8611
775.20,87.9892
775.40,88.0370
775.60,88.2248
775.80,88.0154
776.00,88.1894
776.20,87.8526
776.40,87.9197
776.60,88.0749
776.80,87.5090
777.00,87.8409
777.20,87.9212
777.40,88.1924
777.60,87.9819
777.80,88.0109
778.00,88.0158
778.20,88.0312
778.40,88.3123
778.60,88.0324
778.80,87.7612
779.00,87.9731
779.20,87.6428
779.40,88.2600
779.60,88.1567
779.80,87.8273
780.00,87.7890
780.20,88.3872
780.40,88.1468
780.60,87.9471
780.80,87.8971
781.00,88.0174
781.20,88.2241
781.40,87.8789
781.60,88.2377
781.80,88.2964
782.00,88.0153
782.20,87.8754
782.40,87.9832
782.60,88.4290
782.80,88.1291
783.00,88.2820
783.20,87.8349
783.40,87.9122
783.60,88.3799
783.80,87.7528
784.00,88.0072
784.20,88.1148
784.40,87.8633
784.60,88.2800
784.80,87.7442
785.00,87.6993
785.20,87.9769
785.40,88.0563
785.60,87.8824
785.80,88.0830
786.00,88.1369
786.20,88.2027
786.40,87.9096
786.60,88.0684
786.80,87.6170
787.00,87.7403
787.20,88.3190
787.40,88.5081
787.60,87.8121
787.80,88.0456
788.00,88.2347
788.20,88.1263
788.40,88.2433
788.60,88.0652
788.80,88.2032
789.00,87.9348
789.20,87.9555
789.40,87.8742
789.60,88.1562
789.80,88.0912
790.00,88.6763
790.20,88.1260
790.40,88.4236
790.60,88.2425
790.80,88.1576
791.00,88.0169
791.20,88.0838
791.40,88.3518
791.60,87.9179
791.80,88.0804
792.00,88.1424
792.20,87.7270
792.40,87.8074
792.60,88.1459
792.80,88.2766
793.00,87.9889
793.20,88.0061
793.40,87.7501
793.60,87.9712
793.80,88.0363
794.00,88.2012
794.20,87.8158
794.40,88.1460
794.60,88.0472
794.80,88.1891
795.00,88.2096
795.20,88.5586
795.40,87.9121
795.60,88.1554
795.80,88.1391
796.00,87.8690
796.20,88.5046
796.40,88.0992
796.60,88.2556
796.80,87.7734
797.00,88.0359
797.20,88.2151
797.40,88.1345
797.60,88.2164
797.80,88.4027
798.00,88.4361
798.20,88.3064
798.40,87.9277
798.60,88.2322
798.80,88.0894
799.00,88.1116
799.20,88.2764
799.40,87.8295
799.60,88.3660
799.80,88.1006
800.00,88.2484
