Batch,scan005
EV300,140607
Data Mode,%T  None
Sample,Tedlar+mylar_%T_190-800_b
Cycle,Cycle01
Date Collected,7/28/2016
Time Collected,2:18:37PM
Entries,Data Points
nm,%T
190.00,0.0040
190.20,0.0078
190.40,0.0107
190.60,0.0095
190.80,0.0023
191.00,0.0135
191.20,0.0087
191.40,0.0082
191.60,0.0098
191.80,0.0064
192.00,0.0107
192.20,0.0075
192.40,0.0060
192.60,0.0116
192.80,0.0095
193.00,0.0083
193.20,0.0069
193.40,0.0065
193.60,0.0086
193.80,0.0038
194.00,0.0050
194.20,0.0089
194.40,0.0053
194.60,0.0066
194.80,0.0042
195.00,0.0045
195.20,0.0052
195.40,0.0077
195.60,0.0028
195.80,0.0067
196.00,0.0055
196.20,0.0036
196.40,0.0063
196.60,0.0058
196.80,0.0039
197.00,0.0046
197.20,0.0055
197.40,0.0041
197.60,0.0031
197.80,0.0045
198.00,0.0049
198.20,0.0030
198.40,0.0039
198.60,0.0036
198.80,0.0055
199.00,0.0029
199.20,0.0063
199.40,0.0032
199.60,0.0059
199.80,0.0081
200.00,0.0081
200.20,0.0038
200.40,0.0057
200.60,0.0065
200.80,0.0048
201.00,0.0048
201.20,0.0048
201.40,0.0033
201.60,0.0068
201.80,0.0055
202.00,0.0059
202.20,0.0044
202.40,0.0050
202.60,0.0038
202.80,0.0036
203.00,0.0051
203.20,0.0040
203.40,0.0035
203.60,0.0038
203.80,0.0032
204.00,0.0042
204.20,0.0045
204.40,0.0047
204.60,0.0048
204.80,0.0033
205.00,0.0037
205.20,0.0041
205.40,0.0041
205.60,0.0033
205.80,0.0056
206.00,0.0029
206.20,0.0025
206.40,0.0031
206.60,0.0032
206.80,0.0038
207.00,0.0036
207.20,0.0026
207.40,0.0038
207.60,0.0044
207.80,0.0045
208.00,0.0034
208.20,0.0056
208.40,0.0042
208.60,0.0053
208.80,0.0037
209.00,0.0050
209.20,0.0038
209.40,0.0038
209.60,0.0043
209.80,0.0043
210.00,0.0041
210.20,0.0042
210.40,0.0046
210.60,0.0051
210.80,0.0050
211.00,0.0059
211.20,0.0036
211.40,0.0039
211.60,0.0048
211.80,0.0057
212.00,0.0042
212.20,0.0045
212.40,0.0029
212.60,0.0041
212.80,0.0032
213.00,0.0037
213.20,0.0042
213.40,0.0061
213.60,0.0053
213.80,0.0051
214.00,0.0025
214.20,0.0052
214.40,0.0028
214.60,0.0037
214.80,0.0053
215.00,0.0050
215.20,0.0048
215.40,0.0041
215.60,0.0050
215.80,0.0056
216.00,0.0031
216.20,0.0038
216.40,0.0050
216.60,0.0038
216.80,0.0045
217.00,0.0048
217.20,0.0054
217.40,0.0038
217.60,0.0036
217.80,0.0033
218.00,0.0044
218.20,0.0036
218.40,0.0049
218.60,0.0038
218.80,0.0040
219.00,0.0041
219.20,0.0041
219.40,0.0030
219.60,0.0029
219.80,0.0034
220.00,0.0042
220.20,0.0034
220.40,0.0046
220.60,0.0018
220.80,0.0038
221.00,0.0039
221.20,0.0030
221.40,0.0038
221.60,0.0038
221.80,0.0022
222.00,0.0026
222.20,0.0030
222.40,0.0038
222.60,0.0031
222.80,0.0036
223.00,0.0000
223.20,0.0051
223.40,0.0074
223.60,0.0022
223.80,0.0000
224.00,0.0019
224.20,0.0053
224.40,0.0026
224.60,0.0034
224.80,0.0022
225.00,0.0012
225.20,0.0024
225.40,0.0055
225.60,0.0000
225.80,0.0017
226.00,0.0043
226.20,0.0031
226.40,0.0036
226.60,0.0045
226.80,0.0031
227.00,0.0026
227.20,0.0036
227.40,0.0028
227.60,0.0027
227.80,0.0010
228.00,0.0017
228.20,0.0012
228.40,0.0023
228.60,0.0018
228.80,0.0019
229.00,0.0016
229.20,0.0018
229.40,0.0024
229.60,0.0016
229.80,0.0022
230.00,0.0018
230.20,0.0015
230.40,0.0023
230.60,0.0017
230.80,0.0030
231.00,0.0014
231.20,0.0027
231.40,0.0018
231.60,0.0020
231.80,0.0013
232.00,0.0027
232.20,0.0031
232.40,0.0010
232.60,0.0026
232.80,0.0019
233.00,0.0028
233.20,0.0031
233.40,0.0018
233.60,0.0024
233.80,0.0029
234.00,0.0042
234.20,0.0021
234.40,0.0000
234.60,0.0028
234.80,0.0034
235.00,0.0029
235.20,0.0027
235.40,0.0041
235.60,0.0022
235.80,0.0029
236.00,0.0029
236.20,0.0023
236.40,0.0013
236.60,0.0027
236.80,0.0031
237.00,0.0021
237.20,0.0028
237.40,0.0014
237.60,0.0042
237.80,0.0024
238.00,0.0020
238.20,0.0046
238.40,0.0007
238.60,0.0024
238.80,0.0029
239.00,0.0022
239.20,0.0032
239.40,0.0000
239.60,0.0024
239.80,0.0068
240.00,0.0040
240.20,0.0029
240.40,0.0029
240.60,0.0028
240.80,0.0020
241.00,0.0020
241.20,0.0031
241.40,0.0034
241.60,0.0014
241.80,0.0021
242.00,0.0030
242.20,0.0027
242.40,0.0032
242.60,0.0016
242.80,0.0017
243.00,0.0008
243.20,0.0023
243.40,0.0019
243.60,0.0028
243.80,0.0016
244.00,0.0015
244.20,0.0032
244.40,0.0034
244.60,0.0028
244.80,0.0041
245.00,0.0042
245.20,0.0014
245.40,0.0034
245.60,0.0044
245.80,0.0021
246.00,0.0030
246.20,0.0017
246.40,0.0018
246.60,0.0025
246.80,0.0037
247.00,0.0019
247.20,0.0015
247.40,0.0015
247.60,0.0011
247.80,0.0013
248.00,0.0014
248.20,0.0021
248.40,0.0019
248.60,0.0014
248.80,0.0026
249.00,0.0031
249.20,0.0021
249.40,0.0023
249.60,0.0027
249.80,0.0030
250.00,0.0032
250.20,0.0016
250.40,0.0039
250.60,0.0013
250.80,0.0051
251.00,0.0045
251.20,0.0024
251.40,0.0059
251.60,0.0025
251.80,0.0011
252.00,0.0018
252.20,0.0040
252.40,0.0021
252.60,0.0023
252.80,0.0030
253.00,0.0009
253.20,0.0026
253.40,0.0051
253.60,0.0016
253.80,0.0046
254.00,0.0036
254.20,0.0018
254.40,0.0082
254.60,0.0027
254.80,0.0000
255.00,0.0047
255.20,0.0052
255.40,0.0009
255.60,0.0047
255.80,0.0061
256.00,0.0079
256.20,0.0058
256.40,0.0032
256.60,0.0048
256.80,0.0058
257.00,0.0027
257.20,0.0036
257.40,0.0066
257.60,0.0059
257.80,0.0046
258.00,0.0039
258.20,0.0062
258.40,0.0062
258.60,0.0046
258.80,0.0063
259.00,0.0037
259.20,0.0023
259.40,0.0047
259.60,0.0025
259.80,0.0036
260.00,0.0037
260.20,0.0029
260.40,0.0040
260.60,0.0037
260.80,0.0038
261.00,0.0025
261.20,0.0024
261.40,0.0033
261.60,0.0023
261.80,0.0027
262.00,0.0072
262.20,0.0040
262.40,0.0042
262.60,0.0051
262.80,0.0018
263.00,0.0069
263.20,0.0040
263.40,0.0055
263.60,0.0053
263.80,0.0046
264.00,0.0036
264.20,0.0078
264.40,0.0038
264.60,0.0035
264.80,0.0053
265.00,0.0047
265.20,0.0051
265.40,0.0045
265.60,0.0029
265.80,0.0070
266.00,0.0038
266.20,0.0070
266.40,0.0049
266.60,0.0041
266.80,0.0042
267.00,0.0044
267.20,0.0047
267.40,0.0032
267.60,0.0033
267.80,0.0069
268.00,0.0047
268.20,0.0044
268.40,0.0038
268.60,0.0060
268.80,0.0061
269.00,0.0046
269.20,0.0042
269.40,0.0040
269.60,0.0058
269.80,0.0051
270.00,0.0045
270.20,0.0062
270.40,0.0052
270.60,0.0047
270.80,0.0073
271.00,0.0034
271.20,0.0043
271.40,0.0056
271.60,0.0042
271.80,0.0051
272.00,0.0050
272.20,0.0039
272.40,0.0045
272.60,0.0040
272.80,0.0057
273.00,0.0044
273.20,0.0045
273.40,0.0049
273.60,0.0061
273.80,0.0058
274.00,0.0054
274.20,0.0049
274.40,0.0056
274.60,0.0061
274.80,0.0039
275.00,0.0035
275.20,0.0049
275.40,0.0072
275.60,0.0067
275.80,0.0066
276.00,0.0045
276.20,0.0056
276.40,0.0053
276.60,0.0075
276.80,0.0059
277.00,0.0072
277.20,0.0063
277.40,0.0047
277.60,0.0062
277.80,0.0080
278.00,0.0060
278.20,0.0055
278.40,0.0053
278.60,0.0068
278.80,0.0051
279.00,0.0054
279.20,0.0073
279.40,0.0052
279.60,0.0059
279.80,0.0065
280.00,0.0074
280.20,0.0055
280.40,0.0081
280.60,0.0066
280.80,0.0087
281.00,0.0067
281.20,0.0065
281.40,0.0069
281.60,0.0052
281.80,0.0065
282.00,0.0053
282.20,0.0069
282.40,0.0049
282.60,0.0055
282.80,0.0068
283.00,0.0063
283.20,0.0047
283.40,0.0055
283.60,0.0082
283.80,0.0080
284.00,0.0058
284.20,0.0075
284.40,0.0072
284.60,0.0051
284.80,0.0059
285.00,0.0066
285.20,0.0056
285.40,0.0074
285.60,0.0052
285.80,0.0055
286.00,0.0066
286.20,0.0070
286.40,0.0075
286.60,0.0076
286.80,0.0051
287.00,0.0067
287.20,0.0055
287.40,0.0077
287.60,0.0067
287.80,0.0048
288.00,0.0066
288.20,0.0079
288.40,0.0067
288.60,0.0072
288.80,0.0076
289.00,0.0072
289.20,0.0085
289.40,0.0080
289.60,0.0072
289.80,0.0095
290.00,0.0083
290.20,0.0074
290.40,0.0074
290.60,0.0074
290.80,0.0074
291.00,0.0069
291.20,0.0056
291.40,0.0075
291.60,0.0068
291.80,0.0082
292.00,0.0100
292.20,0.0085
292.40,0.0078
292.60,0.0101
292.80,0.0095
293.00,0.0092
293.20,0.0094
293.40,0.0083
293.60,0.0099
293.80,0.0077
294.00,0.0104
294.20,0.0084
294.40,0.0088
294.60,0.0082
294.80,0.0062
295.00,0.0089
295.20,0.0085
295.40,0.0083
295.60,0.0069
295.80,0.0086
296.00,0.0074
296.20,0.0072
296.40,0.0092
296.60,0.0076
296.80,0.0076
297.00,0.0065
297.20,0.0078
297.40,0.0083
297.60,0.0067
297.80,0.0069
298.00,0.0082
298.20,0.0073
298.40,0.0078
298.60,0.0083
298.80,0.0068
299.00,0.0077
299.20,0.0091
299.40,0.0102
299.60,0.0095
299.80,0.0102
300.00,0.0119
300.20,0.0109
300.40,0.0106
300.60,0.0105
300.80,0.0088
301.00,0.0108
301.20,0.0123
301.40,0.0107
301.60,0.0104
301.80,0.0098
302.00,0.0125
302.20,0.0118
302.40,0.0115
302.60,0.0107
302.80,0.0117
303.00,0.0122
303.20,0.0137
303.40,0.0143
303.60,0.0166
303.80,0.0170
304.00,0.0180
304.20,0.0188
304.40,0.0192
304.60,0.0232
304.80,0.0232
305.00,0.0262
305.20,0.0277
305.40,0.0308
305.60,0.0280
305.80,0.0349
306.00,0.0336
306.20,0.0408
306.40,0.0351
306.60,0.0380
306.80,0.0396
307.00,0.0391
307.20,0.0432
307.40,0.0430
307.60,0.0440
307.80,0.0396
308.00,0.0391
308.20,0.0427
308.40,0.0379
308.60,0.0368
308.80,0.0365
309.00,0.0392
309.20,0.0405
309.40,0.0418
309.60,0.0400
309.80,0.0413
310.00,0.0406
310.20,0.0434
310.40,0.0421
310.60,0.0488
310.80,0.0520
311.00,0.0583
311.20,0.0741
311.40,0.1015
311.60,0.1317
311.80,0.1582
312.00,0.1922
312.20,0.2184
312.40,0.2478
312.60,0.2903
312.80,0.3453
313.00,0.4240
313.20,0.5252
313.40,0.6566
313.60,0.8162
313.80,1.0195
314.00,1.2666
314.20,1.5747
314.40,1.9318
314.60,2.3477
314.80,2.8160
315.00,3.2734
315.20,3.7915
315.40,4.3792
315.60,5.0434
315.80,5.8176
316.00,6.6744
316.20,7.6024
316.40,8.5563
316.60,9.5807
316.80,10.5936
317.00,11.6317
317.20,12.6787
317.40,13.7213
317.60,14.7774
317.80,15.4942
318.00,16.5826
318.20,17.6874
318.40,18.7326
318.60,19.8446
318.80,20.9515
319.00,21.9287
319.20,22.9395
319.40,23.8893
319.60,24.8236
319.80,25.6545
320.00,26.5234
320.20,27.4021
320.40,28.2443
320.60,29.1196
320.80,29.9157
321.00,30.7255
321.20,31.4800
321.40,32.2322
321.60,32.9206
321.80,33.6925
322.00,34.3158
322.20,34.9334
322.40,35.6218
322.60,36.2128
322.80,36.8573
323.00,37.3734
323.20,37.9247
323.40,38.4746
323.60,39.0260
323.80,39.5045
324.00,40.0043
324.20,40.4218
324.40,40.8932
324.60,41.2250
324.80,41.5657
325.00,41.9786
325.20,42.2891
325.40,42.6665
325.60,42.9790
325.80,43.2461
326.00,43.5801
326.20,43.8462
326.40,44.1938
326.60,44.4255
326.80,44.6792
327.00,44.8766
327.20,45.1067
327.40,45.3208
327.60,45.4765
327.80,45.7189
328.00,45.9333
328.20,46.1170
328.40,46.3165
328.60,46.4880
328.80,46.6237
329.00,46.8451
329.20,46.9959
329.40,47.1246
329.60,47.2901
329.80,47.5028
330.00,47.6528
330.20,47.7789
330.40,47.9626
330.60,47.9959
330.80,48.2635
331.00,48.3904
331.20,48.5200
331.40,48.7252
331.60,48.8610
331.80,49.0513
332.00,49.1966
332.20,49.3870
332.40,49.5771
332.60,49.6977
332.80,49.8704
333.00,50.0435
333.20,50.2408
333.40,50.3585
333.60,50.5014
333.80,50.6618
334.00,50.7451
334.20,50.9197
334.40,51.0287
334.60,51.1745
334.80,51.3305
335.00,51.4374
335.20,51.5628
335.40,51.6512
335.60,51.7662
335.80,51.8533
336.00,51.9585
336.20,52.0440
336.40,52.1566
336.60,52.1828
336.80,52.2896
337.00,52.3582
337.20,52.4044
337.40,52.4993
337.60,52.5368
337.80,52.5630
338.00,52.6515
338.20,52.7090
338.40,52.6971
338.60,52.7164
338.80,52.7338
339.00,52.8069
339.20,52.7971
339.40,52.8503
339.60,52.8589
339.80,52.8119
340.00,52.7519
340.20,52.8541
340.40,52.9416
340.60,52.9395
340.80,52.9526
341.00,52.9755
341.20,52.9700
341.40,53.0866
341.60,53.0838
341.80,53.1340
342.00,53.1782
342.20,53.2475
342.40,53.2598
342.60,53.3157
342.80,53.3808
343.00,53.4198
343.20,53.4952
343.40,53.6227
343.60,53.6717
343.80,53.7602
344.00,53.8537
344.20,53.9865
344.40,54.1024
344.60,54.1989
344.80,54.2886
345.00,54.4500
345.20,54.4577
345.40,54.6164
345.60,54.7001
345.80,54.8748
346.00,54.9909
346.20,55.0557
346.40,55.2122
346.60,55.3305
346.80,55.3751
347.00,55.4690
347.20,55.6518
347.40,55.7601
347.60,55.7732
347.80,55.9021
348.00,56.0364
348.20,56.0822
348.40,56.1587
348.60,56.2938
348.80,56.4073
349.00,56.4211
349.20,56.4713
349.40,56.5692
349.60,56.6086
349.80,56.7074
350.00,56.6628
350.20,56.7559
350.40,56.8189
350.60,56.7865
350.80,56.7850
351.00,56.8533
351.20,56.8208
351.40,56.9193
351.60,56.9101
351.80,56.9401
352.00,56.9769
352.20,57.0584
352.40,56.9844
352.60,57.0177
352.80,56.9749
353.00,56.9682
353.20,57.0255
353.40,57.1460
353.60,57.0304
353.80,57.0720
354.00,57.0695
354.20,57.1070
354.40,57.0708
354.60,57.0949
354.80,57.0227
355.00,57.0605
355.20,57.1524
355.40,57.1403
355.60,57.1521
355.80,57.1707
356.00,57.2400
356.20,57.2391
356.40,57.2401
356.60,57.3073
356.80,57.4164
357.00,57.4371
357.20,57.5227
357.40,57.5972
357.60,57.6522
357.80,57.7523
358.00,57.7792
358.20,57.9130
358.40,58.0055
358.60,58.0391
358.80,58.1530
359.00,58.1532
359.20,58.2617
359.40,58.2984
359.60,58.3438
359.80,58.4617
360.00,58.5609
360.20,58.6453
360.40,58.7285
360.60,58.8472
360.80,58.9518
361.00,59.0541
361.20,59.1002
361.40,59.3307
361.60,59.4834
361.80,59.6006
362.00,59.6532
362.20,59.8286
362.40,59.9316
362.60,59.9458
362.80,60.0413
363.00,60.0965
363.20,60.1746
363.40,60.1718
363.60,60.2474
363.80,60.2172
364.00,60.2817
364.20,60.3347
364.40,60.3161
364.60,60.4041
364.80,60.4889
365.00,60.5744
365.20,60.5554
365.40,60.6397
365.60,60.7154
365.80,60.7682
366.00,60.7858
366.20,60.7786
366.40,60.8288
366.60,60.9746
366.80,61.0054
367.00,60.9985
367.20,61.2279
367.40,61.1422
367.60,61.1424
367.80,61.1517
368.00,61.1543
368.20,61.2471
368.40,61.2810
368.60,61.3129
368.80,61.2792
369.00,61.3228
369.20,61.3994
369.40,61.4380
369.60,61.4531
369.80,61.5057
370.00,61.4890
370.20,61.4867
370.40,61.5144
370.60,61.5805
370.80,61.6630
371.00,61.6879
371.20,61.6579
371.40,61.7692
371.60,61.8212
371.80,61.8083
372.00,61.8759
372.20,61.9134
372.40,61.9859
372.60,61.9677
372.80,62.0484
373.00,62.0817
373.20,62.1698
373.40,62.2662
373.60,62.2796
373.80,62.3339
374.00,62.3129
374.20,62.3532
374.40,62.5257
374.60,62.6094
374.80,62.5830
375.00,62.7060
375.20,62.7504
375.40,62.7973
375.60,62.9397
375.80,62.9531
376.00,63.0249
376.20,63.0676
376.40,63.1025
376.60,63.2348
376.80,63.3214
377.00,63.3135
377.20,63.4534
377.40,63.4393
377.60,63.4560
377.80,63.5599
378.00,63.6388
378.20,63.6409
378.40,63.6929
378.60,63.8046
378.80,63.7452
379.00,63.8606
379.20,63.9766
379.40,64.0002
379.60,63.9797
379.80,64.0354
380.00,64.1184
380.20,64.1419
380.40,64.1617
380.60,64.2544
380.80,64.3065
381.00,64.2653
381.20,64.3434
381.40,64.3255
381.60,64.3504
381.80,64.3261
382.00,64.4273
382.20,64.3649
382.40,64.4532
382.60,64.4638
382.80,64.4486
383.00,64.3723
383.20,64.4272
383.40,64.4666
383.60,64.4423
383.80,64.4073
384.00,64.4003
384.20,64.3980
384.40,64.4444
384.60,64.3982
384.80,64.3677
385.00,64.4361
385.20,64.3420
385.40,64.4506
385.60,64.3354
385.80,64.3949
386.00,64.3743
386.20,64.3967
386.40,64.3506
386.60,64.3056
386.80,64.1910
387.00,64.3109
387.20,64.3270
387.40,64.3001
387.60,64.3094
387.80,64.2623
388.00,64.2299
388.20,64.2877
388.40,64.2022
388.60,64.2012
388.80,64.1945
389.00,64.2113
389.20,64.2394
389.40,64.2576
389.60,64.2248
389.80,64.2483
390.00,64.2397
390.20,64.2246
390.40,64.2605
390.60,64.2354
390.80,64.2100
391.00,64.3057
391.20,64.2486
391.40,64.2907
391.60,64.3556
391.80,64.3377
392.00,64.3356
392.20,64.3920
392.40,64.3615
392.60,64.4316
392.80,64.4370
393.00,64.5401
393.20,64.4850
393.40,64.5343
393.60,64.6707
393.80,64.6727
394.00,64.7359
394.20,64.7888
394.40,64.8049
394.60,64.7980
394.80,64.8167
395.00,64.9654
395.20,64.9329
395.40,64.9884
395.60,65.0159
395.80,65.1042
396.00,65.1150
396.20,65.2197
396.40,65.2290
396.60,65.3300
396.80,65.3530
397.00,65.5047
397.20,65.4623
397.40,65.5499
397.60,65.5834
397.80,65.7011
398.00,65.6887
398.20,65.7889
398.40,65.8410
398.60,65.8939
398.80,65.9145
399.00,65.9579
399.20,66.1005
399.40,66.0831
399.60,66.2008
399.80,66.1965
400.00,66.3195
400.20,66.3748
400.40,66.3792
400.60,66.4734
400.80,66.4668
401.00,66.6625
401.20,66.6329
401.40,66.6475
401.60,66.7154
401.80,66.7057
402.00,66.7494
402.20,66.8154
402.40,66.8411
402.60,66.8624
402.80,66.7996
403.00,66.9319
403.20,66.9418
403.40,66.9247
403.60,66.9935
403.80,66.9819
404.00,67.0300
404.20,67.0829
404.40,67.0384
404.60,67.0345
404.80,67.0118
405.00,67.0105
405.20,67.0306
405.40,67.1138
405.60,67.1107
405.80,67.0673
406.00,67.1537
406.20,67.0541
406.40,67.0806
406.60,66.9881
406.80,67.1066
407.00,67.0842
407.20,67.0624
407.40,67.0738
407.60,67.0301
407.80,66.9848
408.00,66.9442
408.20,66.9739
408.40,66.9762
408.60,66.9302
408.80,66.9081
409.00,66.8740
409.20,66.9711
409.40,66.8726
409.60,66.9132
409.80,66.8513
410.00,66.8419
410.20,66.7969
410.40,66.8143
410.60,66.7212
410.80,66.7286
411.00,66.7036
411.20,66.6623
411.40,66.7121
411.60,66.6578
411.80,66.6297
412.00,66.6466
412.20,66.5871
412.40,66.6215
412.60,66.5912
412.80,66.5248
413.00,66.5401
413.20,66.5056
413.40,66.4479
413.60,66.4387
413.80,66.4426
414.00,66.4476
414.20,66.3792
414.40,66.4085
414.60,66.4132
414.80,66.3765
415.00,66.3947
415.20,66.3482
415.40,66.4204
415.60,66.3979
415.80,66.4001
416.00,66.3295
416.20,66.3448
416.40,66.3122
416.60,66.3544
416.80,66.3236
417.00,66.3689
417.20,66.3300
417.40,66.3739
417.60,66.3115
417.80,66.3640
418.00,66.4495
418.20,66.3661
418.40,66.3738
418.60,66.4196
418.80,66.4515
419.00,66.4712
419.20,66.4938
419.40,66.4933
419.60,66.4805
419.80,66.5643
420.00,66.5273
420.20,66.5681
420.40,66.6512
420.60,66.5867
420.80,66.7122
421.00,66.7302
421.20,66.7254
421.40,66.7454
421.60,66.8203
421.80,66.8021
422.00,66.8639
422.20,66.8972
422.40,66.9416
422.60,67.0037
422.80,67.0317
423.00,67.0530
423.20,67.1241
423.40,67.2176
423.60,67.1829
423.80,67.2766
424.00,67.2982
424.20,67.4069
424.40,67.4229
424.60,67.4654
424.80,67.5106
425.00,67.5420
425.20,67.5970
425.40,67.7105
425.60,67.7051
425.80,67.7570
426.00,67.7972
426.20,67.8490
426.40,67.9720
426.60,68.0099
426.80,68.0239
427.00,68.0448
427.20,68.1278
427.40,68.1760
427.60,68.2448
427.80,68.3430
428.00,68.3591
428.20,68.4121
428.40,68.4371
428.60,68.4795
428.80,68.5268
429.00,68.6180
429.20,68.6319
429.40,68.6619
429.60,68.7546
429.80,68.7802
430.00,68.8194
430.20,68.8610
430.40,68.9683
430.60,68.9919
430.80,69.0249
431.00,69.1060
431.20,69.1056
431.40,69.1781
431.60,69.1716
431.80,69.2035
432.00,69.2737
432.20,69.2663
432.40,69.3491
432.60,69.4401
432.80,69.3964
433.00,69.5855
433.20,69.4519
433.40,69.5951
433.60,69.5243
433.80,69.5484
434.00,69.5676
434.20,69.5804
434.40,69.6282
434.60,69.5938
434.80,69.6688
435.00,69.6265
435.20,69.7189
435.40,69.6836
435.60,69.6933
435.80,69.7641
436.00,69.7295
436.20,69.7055
436.40,69.7698
436.60,69.8114
436.80,69.6884
437.00,69.7252
437.20,69.7634
437.40,69.7338
437.60,69.7478
437.80,69.7855
438.00,69.7684
438.20,69.7951
438.40,69.7399
438.60,69.7538
438.80,69.7904
439.00,69.6995
439.20,69.7110
439.40,69.6590
439.60,69.7197
439.80,69.7387
440.00,69.7211
440.20,69.6686
440.40,69.6221
440.60,69.5900
440.80,69.5497
441.00,69.6146
441.20,69.5292
441.40,69.5875
441.60,69.5030
441.80,69.4445
442.00,69.4527
442.20,69.3945
442.40,69.3529
442.60,69.3845
442.80,69.3654
443.00,69.3775
443.20,69.3078
443.40,69.2377
443.60,69.1477
443.80,69.2371
444.00,69.2665
444.20,69.1891
444.40,69.1385
444.60,69.1308
444.80,69.1424
445.00,69.0967
445.20,69.0760
445.40,69.0743
445.60,68.9718
445.80,68.9806
446.00,68.9373
446.20,68.8907
446.40,68.8835
446.60,68.9454
446.80,68.8180
447.00,68.7660
447.20,68.8153
447.40,68.6815
447.60,68.7267
447.80,68.7202
448.00,68.6565
448.20,68.5798
448.40,68.6343
448.60,68.5498
448.80,68.5192
449.00,68.4360
449.20,68.4583
449.40,68.3733
449.60,68.2999
449.80,68.2361
450.00,68.1547
450.20,68.1904
450.40,68.2151
450.60,68.1237
450.80,68.0869
451.00,68.1172
451.20,68.0563
451.40,67.9861
451.60,68.0221
451.80,67.9213
452.00,68.0294
452.20,67.9177
452.40,67.9123
452.60,67.9110
452.80,67.9257
453.00,67.8397
453.20,67.8356
453.40,67.7982
453.60,67.7144
453.80,67.7749
454.00,67.6981
454.20,67.6379
454.40,67.6789
454.60,67.6491
454.80,67.5917
455.00,67.6632
455.20,67.5875
455.40,67.5423
455.60,67.6552
455.80,67.5352
456.00,67.4650
456.20,67.4956
456.40,67.4239
456.60,67.4207
456.80,67.4571
457.00,67.3649
457.20,67.3670
457.40,67.4383
457.60,67.4027
457.80,67.3985
458.00,67.4207
458.20,67.3045
458.40,67.3151
458.60,67.3991
458.80,67.3526
459.00,67.3553
459.20,67.3572
459.40,67.3594
459.60,67.4070
459.80,67.4534
460.00,67.4059
460.20,67.4292
460.40,67.4817
460.60,67.4438
460.80,67.4663
461.00,67.4882
461.20,67.4717
461.40,67.5055
461.60,67.5578
461.80,67.5190
462.00,67.4864
462.20,67.5235
462.40,67.5641
462.60,67.5394
462.80,67.6031
463.00,67.5892
463.20,67.5963
463.40,67.6325
463.60,67.6751
463.80,67.6495
464.00,67.7098
464.20,67.8049
464.40,67.7830
464.60,67.8604
464.80,67.8605
465.00,67.8753
465.20,67.9536
465.40,67.9777
465.60,68.0179
465.80,68.0392
466.00,68.0869
466.20,68.1021
466.40,68.2286
466.60,68.2640
466.80,68.2082
467.00,68.3634
467.20,68.3950
467.40,68.4560
467.60,68.5164
467.80,68.6119
468.00,68.6055
468.20,68.6472
468.40,68.7608
468.60,68.7827
468.80,68.7937
469.00,68.9564
469.20,68.9072
469.40,69.0316
469.60,69.1435
469.80,69.1648
470.00,69.2047
470.20,69.3520
470.40,69.2452
470.60,69.4282
470.80,69.4636
471.00,69.4781
471.20,69.5678
471.40,69.6389
471.60,69.7048
471.80,69.7675
472.00,69.8074
472.20,69.9214
472.40,69.9344
472.60,70.0858
472.80,70.1429
473.00,70.0437
473.20,70.2573
473.40,70.3590
473.60,70.3015
473.80,70.4281
474.00,70.5185
474.20,70.5494
474.40,70.5455
474.60,70.7034
474.80,70.7328
475.00,70.7815
475.20,70.8243
475.40,70.8509
475.60,70.8203
475.80,71.0153
476.00,70.9715
476.20,70.8890
476.40,71.1063
476.60,71.2283
476.80,71.1967
477.00,71.2866
477.20,71.3651
477.40,71.2611
477.60,71.3939
477.80,71.5251
478.00,71.4755
478.20,71.5314
478.40,71.6585
478.60,71.6431
478.80,71.6039
479.00,71.7502
479.20,71.7579
479.40,71.7371
479.60,71.8093
479.80,71.8722
480.00,71.8240
480.20,71.8650
480.40,72.0509
480.60,71.9534
480.80,72.0117
481.00,72.1073
481.20,72.0649
481.40,71.9967
481.60,72.1561
481.80,72.1337
482.00,72.1123
482.20,72.1875
482.40,72.2739
482.60,72.2189
482.80,72.2277
483.00,72.3336
483.20,72.3453
483.40,72.3355
483.60,72.4515
483.80,72.4893
484.00,72.4931
484.20,72.5721
484.40,72.5566
484.60,72.4878
484.80,72.4561
485.00,72.5505
485.20,72.4597
485.40,72.4727
485.60,72.5463
485.80,72.5083
486.00,72.4536
486.20,72.5817
486.40,72.5563
486.60,72.4876
486.80,72.5607
487.00,72.5765
487.20,72.6014
487.40,72.5399
487.60,72.5921
487.80,72.5728
488.00,72.5438
488.20,72.5609
488.40,72.5767
488.60,72.5168
488.80,72.4597
489.00,72.4965
489.20,72.4900
489.40,72.4095
489.60,72.4777
489.80,72.4571
490.00,72.3872
490.20,72.3720
490.40,72.4356
490.60,72.3921
490.80,72.3688
491.00,72.3873
491.20,72.3933
491.40,72.2755
491.60,72.3240
491.80,72.2940
492.00,72.2628
492.20,72.2506
492.40,72.2508
492.60,72.2438
492.80,72.1913
493.00,72.2323
493.20,72.2557
493.40,72.2204
493.60,72.1565
493.80,72.2882
494.00,72.2048
494.20,72.1169
494.40,72.0825
494.60,72.0973
494.80,72.1890
495.00,72.1123
495.20,72.0983
495.40,72.0586
495.60,72.0749
495.80,72.0328
496.00,72.1336
496.20,71.9629
496.40,71.9761
496.60,71.9589
496.80,71.9631
497.00,71.8544
497.20,71.8220
497.40,71.7804
497.60,71.8590
497.80,71.8587
498.00,71.6836
498.20,71.6817
498.40,71.7567
498.60,71.7128
498.80,71.7575
499.00,71.7634
499.20,71.6750
499.40,71.5290
499.60,71.6952
499.80,71.6996
500.00,71.6933
500.20,71.5666
500.40,71.5705
500.60,71.6409
500.80,71.3167
501.00,71.4516
501.20,71.4343
501.40,71.4020
501.60,71.3205
501.80,71.4251
502.00,71.4294
502.20,71.3815
502.40,71.2967
502.60,71.3271
502.80,71.2859
503.00,71.3087
503.20,71.2713
503.40,71.2997
503.60,71.2412
503.80,71.1818
504.00,71.1935
504.20,71.3344
504.40,71.0836
504.60,71.1699
504.80,71.1970
505.00,71.1060
505.20,71.0269
505.40,71.0288
505.60,71.1177
505.80,71.0672
506.00,71.0120
506.20,71.1104
506.40,71.1589
506.60,70.9399
506.80,70.9497
507.00,71.0502
507.20,70.9813
507.40,70.9248
507.60,70.9239
507.80,70.9969
508.00,70.9033
508.20,70.7242
508.40,70.8300
508.60,70.8671
508.80,70.7665
509.00,70.7764
509.20,70.7755
509.40,70.7887
509.60,70.7350
509.80,70.7652
510.00,70.7527
510.20,70.8105
510.40,70.7248
510.60,70.7500
510.80,70.7081
511.00,70.6654
511.20,70.6584
511.40,70.7685
511.60,70.7108
511.80,70.6227
512.00,70.6920
512.20,70.7423
512.40,70.7923
512.60,70.7276
512.80,70.7595
513.00,70.6915
513.20,70.7072
513.40,70.6645
513.60,70.6558
513.80,70.7197
514.00,70.6466
514.20,70.5252
514.40,70.7596
514.60,70.5961
514.80,70.6241
515.00,70.5499
515.20,70.6623
515.40,70.6096
515.60,70.5896
515.80,70.5789
516.00,70.5962
516.20,70.5045
516.40,70.5323
516.60,70.5647
516.80,70.5791
517.00,70.5801
517.20,70.6230
517.40,70.5652
517.60,70.6289
517.80,70.6096
518.00,70.5198
518.20,70.5156
518.40,70.5436
518.60,70.5909
518.80,70.5760
519.00,70.5860
519.20,70.5065
519.40,70.6214
519.60,70.6775
519.80,70.5606
520.00,70.5591
520.20,70.6059
520.40,70.6067
520.60,70.6921
520.80,70.7576
521.00,70.6048
521.20,70.5891
521.40,70.6492
521.60,70.6878
521.80,70.6569
522.00,70.6393
522.20,70.6719
522.40,70.6928
522.60,70.6383
522.80,70.7265
523.00,70.6824
523.20,70.7499
523.40,70.6519
523.60,70.6249
523.80,70.6189
524.00,70.6269
524.20,70.6966
524.40,70.7009
524.60,70.6883
524.80,70.6687
525.00,70.6863
525.20,70.7008
525.40,70.7842
525.60,70.7152
525.80,70.7415
526.00,70.7482
526.20,70.8353
526.40,70.8300
526.60,70.8732
526.80,70.8556
527.00,70.8780
527.20,70.8916
527.40,70.8205
527.60,70.8710
527.80,70.8969
528.00,70.8886
528.20,70.9360
528.40,70.9749
528.60,70.9682
528.80,70.9710
529.00,70.9881
529.20,71.0093
529.40,70.9779
529.60,71.0643
529.80,71.0920
530.00,71.1339
530.20,71.0938
530.40,71.1711
530.60,71.1472
530.80,71.2049
531.00,71.1625
531.20,71.2318
531.40,71.1555
531.60,71.1189
531.80,71.2127
532.00,71.2591
532.20,71.2050
532.40,71.2591
532.60,71.2432
532.80,71.2997
533.00,71.3041
533.20,71.3635
533.40,71.3841
533.60,71.4072
533.80,71.4449
534.00,71.4733
534.20,71.4629
534.40,71.4753
534.60,71.5635
534.80,71.5763
535.00,71.5202
535.20,71.5946
535.40,71.6166
535.60,71.5460
535.80,71.5825
536.00,71.6940
536.20,71.6644
536.40,71.7230
536.60,71.7144
536.80,71.7708
537.00,71.7741
537.20,71.7735
537.40,71.8025
537.60,71.8736
537.80,71.9053
538.00,71.9148
538.20,72.0095
538.40,71.9861
538.60,71.9863
538.80,72.0437
539.00,72.0540
539.20,72.0512
539.40,72.0515
539.60,72.0786
539.80,72.1335
540.00,72.1259
540.20,72.1022
540.40,72.1494
540.60,72.2159
540.80,72.2304
541.00,72.2910
541.20,72.3262
541.40,72.3401
541.60,72.4081
541.80,72.3483
542.00,72.3914
542.20,72.4141
542.40,72.4362
542.60,72.4346
542.80,72.5127
543.00,72.5402
543.20,72.5251
543.40,72.5502
543.60,72.6026
543.80,72.6528
544.00,72.6794
544.20,72.7105
544.40,72.7935
544.60,72.7486
544.80,72.8215
545.00,72.7110
545.20,72.8851
545.40,72.8225
545.60,72.8345
545.80,72.8517
546.00,72.8883
546.20,72.8871
546.40,72.8754
546.60,72.9906
546.80,72.9803
547.00,73.0960
547.20,72.9784
547.40,73.1574
547.60,72.9561
547.80,73.1398
548.00,73.1742
548.20,73.0803
548.40,73.1807
548.60,73.1744
548.80,73.2057
549.00,73.3396
549.20,73.2785
549.40,73.2103
549.60,73.2395
549.80,73.2859
550.00,73.3379
550.20,73.2973
550.40,73.3999
550.60,73.3204
550.80,73.3229
551.00,73.4319
551.20,73.3891
551.40,73.5133
551.60,73.5105
551.80,73.6251
552.00,73.4671
552.20,73.5076
552.40,73.6027
552.60,73.5701
552.80,73.6058
553.00,73.5771
553.20,73.5505
553.40,73.5300
553.60,73.6662
553.80,73.6391
554.00,73.5535
554.20,73.7061
554.40,73.6816
554.60,73.6747
554.80,73.6228
555.00,73.6892
555.20,73.7446
555.40,73.8007
555.60,73.7139
555.80,73.6452
556.00,73.8338
556.20,73.8363
556.40,73.8821
556.60,73.6891
556.80,73.7833
557.00,73.8114
557.20,73.8826
557.40,73.9659
557.60,73.9649
557.80,73.8365
558.00,73.9579
558.20,73.8111
558.40,73.9305
558.60,73.7783
558.80,73.9052
559.00,73.9239
559.20,73.8741
559.40,73.8836
559.60,73.9202
559.80,74.0544
560.00,73.9691
560.20,73.7965
560.40,73.8491
560.60,73.9337
560.80,73.8953
561.00,73.9284
561.20,73.9206
561.40,73.8167
561.60,74.0748
561.80,73.8604
562.00,74.0751
562.20,73.9559
562.40,73.8340
562.60,73.8468
562.80,73.8752
563.00,73.8655
563.20,73.8751
563.40,73.9810
563.60,74.0148
563.80,73.7965
564.00,73.9328
564.20,73.9109
564.40,73.9230
564.60,74.0184
564.80,74.0172
565.00,74.0045
565.20,74.0305
565.40,73.9495
565.60,73.8820
565.80,73.8877
566.00,73.9255
566.20,73.8422
566.40,74.0148
566.60,73.9841
566.80,73.9275
567.00,73.9063
567.20,73.9792
567.40,73.9401
567.60,73.9607
567.80,74.0123
568.00,73.9859
568.20,73.9707
568.40,73.9240
568.60,73.8792
568.80,73.8900
569.00,73.8389
569.20,73.9991
569.40,73.9085
569.60,74.0211
569.80,73.8244
570.00,73.7800
570.20,73.9242
570.40,73.8594
570.60,73.8954
570.80,73.8967
571.00,73.9128
571.20,73.8495
571.40,73.7827
571.60,73.7389
571.80,73.8056
572.00,73.8918
572.20,73.7321
572.40,73.8072
572.60,73.7942
572.80,73.9318
573.00,73.7809
573.20,73.8337
573.40,73.7094
573.60,73.7914
573.80,73.7442
574.00,73.8121
574.20,73.8357
574.40,73.7691
574.60,73.8949
574.80,73.6886
575.00,73.8468
575.20,73.8246
575.40,73.7929
575.60,73.8178
575.80,73.7501
576.00,73.8057
576.20,73.6647
576.40,73.8378
576.60,73.8428
576.80,73.8084
577.00,73.8770
577.20,74.1041
577.40,73.9480
577.60,73.9094
577.80,73.7902
578.00,73.9757
578.20,73.9687
578.40,73.6861
578.60,73.5764
578.80,73.9131
579.00,73.9733
579.20,73.9060
579.40,73.6774
579.60,73.8124
579.80,73.8425
580.00,74.0005
580.20,73.7589
580.40,73.6717
580.60,73.8604
580.80,73.6515
581.00,73.7285
581.20,73.7822
581.40,74.0018
581.60,73.7758
581.80,73.8844
582.00,73.5367
582.20,73.8660
582.40,73.7475
582.60,73.9013
582.80,73.7779
583.00,73.9589
583.20,73.8070
583.40,73.7008
583.60,73.9986
583.80,73.7766
584.00,73.9875
584.20,73.9176
584.40,73.7093
584.60,73.7481
584.80,73.8072
585.00,74.0144
585.20,73.6444
585.40,73.7356
585.60,73.8775
585.80,73.9062
586.00,73.7927
586.20,73.8156
586.40,73.8230
586.60,73.8511
586.80,73.9346
587.00,73.6673
587.20,73.7832
587.40,73.9244
587.60,74.0228
587.80,74.0350
588.00,73.6689
588.20,73.9024
588.40,74.0525
588.60,73.8929
588.80,73.9957
589.00,73.8070
589.20,73.8976
589.40,73.7872
589.60,73.8534
589.80,74.1042
590.00,73.8634
590.20,73.8015
590.40,73.7518
590.60,73.8427
590.80,73.8342
591.00,73.7233
591.20,73.7729
591.40,73.7888
591.60,73.8307
591.80,73.8296
592.00,73.7656
592.20,73.8545
592.40,73.7705
592.60,73.8705
592.80,73.8701
593.00,73.9454
593.20,73.8142
593.40,73.8295
593.60,73.8390
593.80,73.8309
594.00,73.7963
594.20,73.8661
594.40,73.7512
594.60,73.8921
594.80,74.0229
595.00,74.0057
595.20,73.8450
595.40,73.8820
595.60,73.9410
595.80,73.9142
596.00,74.1365
596.20,73.9923
596.40,73.9443
596.60,74.1365
596.80,74.0877
597.00,74.1454
597.20,73.9900
597.40,73.9357
597.60,73.9675
597.80,74.0644
598.00,74.0985
598.20,74.0947
598.40,74.0426
598.60,74.1268
598.80,74.1185
599.00,74.2002
599.20,74.3360
599.40,74.3142
599.60,74.1224
599.80,74.1890
600.00,74.3196
600.20,74.3351
600.40,74.2413
600.60,74.1434
600.80,74.2506
601.00,74.3369
601.20,74.2569
601.40,74.2759
601.60,74.3381
601.80,74.3171
602.00,74.3797
602.20,74.3288
602.40,74.3373
602.60,74.3446
602.80,74.3691
603.00,74.2537
603.20,74.2998
603.40,74.3610
603.60,74.3645
603.80,74.2657
604.00,74.3125
604.20,74.3145
604.40,74.3090
604.60,74.4042
604.80,74.2962
605.00,74.2563
605.20,74.3952
605.40,74.5144
605.60,74.5047
605.80,74.5184
606.00,74.5330
606.20,74.5601
606.40,74.5592
606.60,74.6411
606.80,74.5476
607.00,74.5920
607.20,74.5514
607.40,74.5565
607.60,74.5587
607.80,74.6297
608.00,74.7013
608.20,74.6263
608.40,74.6008
608.60,74.5969
608.80,74.7882
609.00,74.7806
609.20,74.7777
609.40,74.7738
609.60,74.8539
609.80,74.8705
610.00,74.9364
610.20,74.7984
610.40,74.6884
610.60,74.6778
610.80,74.7418
611.00,74.9149
611.20,74.8256
611.40,74.9123
611.60,74.8348
611.80,74.8462
612.00,74.8536
612.20,75.0915
612.40,74.9324
612.60,74.9171
612.80,74.8004
613.00,74.8888
613.20,74.9805
613.40,75.1266
613.60,75.1175
613.80,74.9820
614.00,75.1093
614.20,74.8988
614.40,74.9806
614.60,75.2894
614.80,75.1910
615.00,75.1795
615.20,75.1775
615.40,75.1970
615.60,75.3494
615.80,75.2924
616.00,75.1533
616.20,75.2568
616.40,75.2353
616.60,75.1022
616.80,75.2913
617.00,75.3196
617.20,75.3390
617.40,75.2921
617.60,75.1671
617.80,75.3323
618.00,75.5164
618.20,75.4515
618.40,75.3213
618.60,75.2307
618.80,75.4062
619.00,75.3836
619.20,75.3108
619.40,75.4467
619.60,75.2882
619.80,75.3283
620.00,75.2320
620.20,75.5209
620.40,75.5035
620.60,75.5018
620.80,75.2980
621.00,75.3028
621.20,75.4110
621.40,75.5352
621.60,75.6596
621.80,75.5968
622.00,75.4475
622.20,75.3077
622.40,75.3764
622.60,75.6830
622.80,75.6073
623.00,75.5301
623.20,75.4022
623.40,75.4169
623.60,75.4945
623.80,75.7290
624.00,75.6587
624.20,75.5628
624.40,75.3341
624.60,75.4405
624.80,75.7402
625.00,75.6480
625.20,75.7848
625.40,75.4541
625.60,75.3374
625.80,75.4509
626.00,75.7839
626.20,75.6734
626.40,75.6465
626.60,75.4114
626.80,75.4628
627.00,75.6163
627.20,75.7546
627.40,75.8852
627.60,75.8134
627.80,75.6031
628.00,75.4490
628.20,75.6053
628.40,75.8244
628.60,75.9193
628.80,75.9395
629.00,75.6293
629.20,75.6120
629.40,75.7813
629.60,75.9750
629.80,75.9905
630.00,75.8713
630.20,75.4867
630.40,75.7867
630.60,75.6607
630.80,75.8853
631.00,75.9370
631.20,75.9733
631.40,75.7720
631.60,75.6757
631.80,75.9619
632.00,76.2855
632.20,76.2669
632.40,75.8736
632.60,75.7571
632.80,75.7538
633.00,75.8088
633.20,76.1665
633.40,76.1164
633.60,75.8312
633.80,75.8922
634.00,75.7613
634.20,76.0519
634.40,76.2576
634.60,76.2620
634.80,75.8850
635.00,75.8217
635.20,75.5332
635.40,75.8120
635.60,76.2047
635.80,76.2650
636.00,75.9674
636.20,75.6239
636.40,75.6521
636.60,75.9208
636.80,76.3230
637.00,76.3343
637.20,75.9707
637.40,75.6494
637.60,75.6872
637.80,76.0564
638.00,76.1170
638.20,76.2943
638.40,76.1078
638.60,75.8204
638.80,75.6794
639.00,76.0077
639.20,76.2341
639.40,76.2031
639.60,75.9513
639.80,75.7444
640.00,75.5566
640.20,76.1019
640.40,76.4063
640.60,76.2110
640.80,76.0794
641.00,75.6652
641.20,75.7432
641.40,75.7784
641.60,76.1864
641.80,76.4284
642.00,75.8789
642.20,75.8999
642.40,75.9194
642.60,75.7776
642.80,76.2175
643.00,76.3769
643.20,75.9990
643.40,75.9665
643.60,75.5493
643.80,75.5857
644.00,76.0424
644.20,76.2559
644.40,76.1047
644.60,75.9502
644.80,75.6861
645.00,75.7017
645.20,75.8870
645.40,76.3584
645.60,76.1223
645.80,76.1238
646.00,75.5276
646.20,75.7102
646.40,75.8664
646.60,76.1971
646.80,76.3849
647.00,76.0423
647.20,75.8043
647.40,75.6188
647.60,75.6970
647.80,76.0674
648.00,76.3677
648.20,76.1529
648.40,75.9321
648.60,75.4641
648.80,75.6145
649.00,76.1233
649.20,76.2878
649.40,76.0738
649.60,75.8359
649.80,75.6437
650.00,75.5514
650.20,75.9200
650.40,76.1352
650.60,76.2334
650.80,75.9854
651.00,75.7689
651.20,75.5190
651.40,75.7512
651.60,76.2109
651.80,76.2883
652.00,76.3266
652.20,75.6677
652.40,75.4786
652.60,75.5373
652.80,76.0388
653.00,76.2258
653.20,76.3137
653.40,75.9166
653.60,75.7670
653.80,75.3194
654.00,75.6232
654.20,75.9732
654.40,76.1336
654.60,76.0905
654.80,75.8735
655.00,75.3634
655.20,75.4457
655.40,75.8612
655.60,76.1324
655.80,76.3068
656.00,76.0101
656.20,75.6225
656.40,75.5503
656.60,75.5816
656.80,75.9341
657.00,76.3266
657.20,76.2103
657.40,75.8091
657.60,75.5671
657.80,75.4778
658.00,75.7995
658.20,75.9496
658.40,75.9765
658.60,75.8732
658.80,75.4975
659.00,75.5141
659.20,75.6091
659.40,75.9668
659.60,75.9849
659.80,75.9513
660.00,75.9512
660.20,75.4178
660.40,75.2177
660.60,75.4746
660.80,75.7739
661.00,76.0164
661.20,76.0563
661.40,75.6326
661.60,75.5427
661.80,75.5027
662.00,75.6905
662.20,76.1205
662.40,76.1353
662.60,76.0490
662.80,75.4927
663.00,75.3608
663.20,75.5615
663.40,75.5548
663.60,76.0450
663.80,75.8321
664.00,75.8318
664.20,75.5651
664.40,75.3695
664.60,75.2585
664.80,75.6064
665.00,75.9748
665.20,75.9323
665.40,75.6253
665.60,75.1934
665.80,75.2728
666.00,75.5736
666.20,75.8608
666.40,75.9578
666.60,75.6660
666.80,75.3469
667.00,75.0673
667.20,75.3105
667.40,75.7473
667.60,75.6324
667.80,75.5499
668.00,75.2417
668.20,75.2617
668.40,75.0633
668.60,75.1530
668.80,75.3942
669.00,75.6151
669.20,75.5378
669.40,75.4285
669.60,75.1184
669.80,74.7305
670.00,75.3904
670.20,75.3953
670.40,75.6223
670.60,75.4406
670.80,75.2473
671.00,74.9809
671.20,74.8750
671.40,75.1190
671.60,75.4729
671.80,75.4631
672.00,75.3406
672.20,75.1398
672.40,75.2369
672.60,74.7500
672.80,75.3382
673.00,75.5086
673.20,75.2390
673.40,75.1402
673.60,74.9222
673.80,74.5483
674.00,74.6384
674.20,75.0951
674.40,75.0502
674.60,75.0585
674.80,74.9722
675.00,74.6637
675.20,74.5802
675.40,75.0901
675.60,75.0631
675.80,75.0995
676.00,74.9364
676.20,74.8164
676.40,74.4510
676.60,74.5179
676.80,74.6632
677.00,74.8029
677.20,74.9478
677.40,74.8429
677.60,74.5179
677.80,74.2967
678.00,73.9749
678.20,74.5091
678.40,74.6654
678.60,74.9557
678.80,74.8869
679.00,74.3427
679.20,74.2227
679.40,74.2573
679.60,74.4109
679.80,74.7080
680.00,74.9001
680.20,74.7185
680.40,74.6007
680.60,74.0658
680.80,73.9938
681.00,74.3888
681.20,74.5107
681.40,74.8423
681.60,74.6109
681.80,74.0174
682.00,73.8523
682.20,73.8341
682.40,74.0766
682.60,74.1832
682.80,74.5912
683.00,74.5733
683.20,74.0824
683.40,73.8738
683.60,73.7735
683.80,73.9030
684.00,74.5882
684.20,74.4243
684.40,74.4175
684.60,73.9689
684.80,73.6894
685.00,73.5846
685.20,73.5552
685.40,74.1218
685.60,74.4090
685.80,74.4183
686.00,73.8961
686.20,73.4315
686.40,73.2103
686.60,73.1334
686.80,73.7953
687.00,74.1183
687.20,74.2979
687.40,73.8487
687.60,73.4826
687.80,73.0008
688.00,73.2827
688.20,73.5637
688.40,74.2154
688.60,73.9541
688.80,73.7974
689.00,73.3114
689.20,72.7285
689.40,72.9783
689.60,73.4861
689.80,73.5280
690.00,73.8327
690.20,73.3563
690.40,73.1050
690.60,72.6030
690.80,72.6404
691.00,72.9139
691.20,73.2843
691.40,73.6944
691.60,73.6623
691.80,73.1644
692.00,72.5721
692.20,72.2386
692.40,72.6439
692.60,73.0215
692.80,73.6944
693.00,73.6543
693.20,72.9398
693.40,72.3201
693.60,72.2557
693.80,72.2321
694.00,72.7006
694.20,72.9981
694.40,73.4360
694.60,73.1667
694.80,72.7694
695.00,72.2267
695.20,71.8521
695.40,72.3029
695.60,72.9843
695.80,73.3089
696.00,73.2238
696.20,72.5867
696.40,72.0393
696.60,71.6104
696.80,71.9231
697.00,72.4397
697.20,73.0759
697.40,73.2424
697.60,72.6633
697.80,72.0081
698.00,71.6237
698.20,71.5346
698.40,72.2068
698.60,72.7480
698.80,73.0425
699.00,72.7495
699.20,72.1964
699.40,71.5324
699.60,71.3105
699.80,71.4871
700.00,72.1602
700.20,72.7914
700.40,73.1052
700.60,72.6287
700.80,72.1365
701.00,71.3771
701.20,71.3311
701.40,71.8895
701.60,72.5645
701.80,72.9087
702.00,72.9939
702.20,72.1768
702.40,71.6088
702.60,71.1330
702.80,71.5623
703.00,72.0968
703.20,72.7313
703.40,72.9501
703.60,72.5745
703.80,71.8905
704.00,71.3024
704.20,71.3052
704.40,71.9875
704.60,72.5431
704.80,72.8644
705.00,72.9363
705.20,72.4200
705.40,71.4238
705.60,71.3007
705.80,71.7075
706.00,72.3942
706.20,72.9736
706.40,73.2294
706.60,72.4346
706.80,71.8023
707.00,71.4334
707.20,71.4392
707.40,71.8662
707.60,72.7455
707.80,73.2567
708.00,72.8900
708.20,72.2998
708.40,71.5128
708.60,71.4060
708.80,71.4299
709.00,72.4341
709.20,72.9538
709.40,73.3943
709.60,72.9465
709.80,72.0775
710.00,71.4258
710.20,71.5287
710.40,71.8816
710.60,72.7775
710.80,73.4662
711.00,73.4140
711.20,72.8222
711.40,71.9437
711.60,71.4049
711.80,71.6703
712.00,72.3627
712.20,73.1159
712.40,73.5151
712.60,73.3568
712.80,72.5860
713.00,71.9031
713.20,71.5993
713.40,71.8052
713.60,72.9098
713.80,73.5210
714.00,73.6001
714.20,73.1733
714.40,72.4368
714.60,71.8353
714.80,71.6817
715.00,72.3705
715.20,73.2528
715.40,73.8207
715.60,73.7531
715.80,73.1140
716.00,72.3333
716.20,71.8740
716.40,72.0748
716.60,72.5658
716.80,73.4033
717.00,74.0618
717.20,73.9696
717.40,73.1170
717.60,72.3450
717.80,71.9162
718.00,72.2581
718.20,72.8971
718.40,73.6536
718.60,74.0859
718.80,73.9034
719.00,73.0514
719.20,72.3081
719.40,71.9793
719.60,72.4055
719.80,73.2778
720.00,73.8977
720.20,74.3698
720.40,73.8926
720.60,73.1515
720.80,72.3786
721.00,72.1471
721.20,72.6721
721.40,73.4469
721.60,74.1851
721.80,74.3302
722.00,73.9771
722.20,72.9623
722.40,72.3989
722.60,72.1920
722.80,72.6930
723.00,73.6996
723.20,74.2347
723.40,74.5546
723.60,73.9324
723.80,73.1001
724.00,72.4013
724.20,72.2789
724.40,72.7359
724.60,73.6375
724.80,74.5051
725.00,74.6377
725.20,74.0477
725.40,73.3058
725.60,72.8070
725.80,72.4799
726.00,73.0081
726.20,73.7146
726.40,74.5511
726.60,74.8878
726.80,74.5434
727.00,73.5046
727.20,72.6842
727.40,72.5147
727.60,73.2679
727.80,74.0207
728.00,74.7772
728.20,74.8343
728.40,74.5136
728.60,73.5784
728.80,72.9052
729.00,72.6646
729.20,73.0155
729.40,73.9728
729.60,74.6012
729.80,74.9180
730.00,74.6334
730.20,73.8053
730.40,72.9566
730.60,72.7058
730.80,72.9157
731.00,73.9698
731.20,74.7343
731.40,75.2269
731.60,74.8595
731.80,74.2547
732.00,73.4267
732.20,72.8421
732.40,73.0934
732.60,73.7834
732.80,74.4663
733.00,75.2193
733.20,75.0462
733.40,74.4943
733.60,73.6901
733.80,73.2687
734.00,73.1500
734.20,73.7144
734.40,74.5238
734.60,75.1075
734.80,75.3818
735.00,74.9023
735.20,74.1823
735.40,73.4216
735.60,73.1293
735.80,73.4891
736.00,74.2728
736.20,75.1410
736.40,75.3488
736.60,75.3419
736.80,74.5930
737.00,73.7504
737.20,73.5158
737.40,73.3806
737.60,74.3270
737.80,75.0145
738.00,75.4993
738.20,75.7856
738.40,74.8155
738.60,74.2809
738.80,73.6048
739.00,73.5498
739.20,73.9424
739.40,74.7191
739.60,75.4500
739.80,75.7207
740.00,75.3132
740.20,74.5983
740.40,74.0327
740.60,73.4943
740.80,73.8988
741.00,74.4895
741.20,75.4736
741.40,75.7860
741.60,75.7979
741.80,75.2601
742.00,73.9500
742.20,73.6751
742.40,73.6215
742.60,74.1027
742.80,75.3335
743.00,75.8825
743.20,75.8729
743.40,75.0748
743.60,74.2872
743.80,74.0489
744.00,73.6059
744.20,74.1933
744.40,75.0075
744.60,75.7504
744.80,76.0044
745.00,75.6844
745.20,75.0622
745.40,74.3445
745.60,73.7279
745.80,74.1794
746.00,74.7645
746.20,75.7489
746.40,76.2463
746.60,75.9603
746.80,75.4919
747.00,74.5857
747.20,74.0233
747.40,73.9782
747.60,74.8469
747.80,75.3326
748.00,76.1405
748.20,76.4025
748.40,75.9952
748.60,75.3357
748.80,74.5584
749.00,74.2059
749.20,74.4375
749.40,75.1870
749.60,75.6963
749.80,76.0948
750.00,76.2495
750.20,75.6676
750.40,75.2563
750.60,74.3442
750.80,74.1983
751.00,74.8619
751.20,75.5143
751.40,76.1829
751.60,76.6301
751.80,76.1726
752.00,75.7493
752.20,75.0976
752.40,74.3410
752.60,74.5355
752.80,75.1152
753.00,75.9922
753.20,76.5470
753.40,76.7273
753.60,76.5889
753.80,75.5233
754.00,74.8412
754.20,74.4169
754.40,74.3401
754.60,75.1443
754.80,76.3274
755.00,76.8110
755.20,76.8009
755.40,76.0787
755.60,75.2211
755.80,74.9108
756.00,74.7007
756.20,74.8947
756.40,75.7618
756.60,76.6589
756.80,76.8147
757.00,76.6127
757.20,76.0621
757.40,75.0908
757.60,74.8065
757.80,74.6458
758.00,75.1536
758.20,75.8318
758.40,76.7274
758.60,76.9197
758.80,76.7513
759.00,76.0201
759.20,75.3458
759.40,74.8160
759.60,74.8032
759.80,75.3879
760.00,76.3341
760.20,76.9354
760.40,77.1816
760.60,76.7885
760.80,75.9633
761.00,75.3188
761.20,74.9524
761.40,75.0882
761.60,75.8746
761.80,76.3821
762.00,77.5122
762.20,76.9491
762.40,76.7802
762.60,76.2467
762.80,75.2694
763.00,74.8944
763.20,75.2026
763.40,75.9136
763.60,76.9293
763.80,77.3932
764.00,77.2105
764.20,76.9067
764.40,76.2123
764.60,75.2452
764.80,74.9619
765.00,75.2204
765.20,75.8404
765.40,76.7002
765.60,77.3227
765.80,77.4502
766.00,77.0720
766.20,76.3841
766.40,75.6540
766.60,75.0893
766.80,75.2433
767.00,75.9866
767.20,76.9862
767.40,77.4869
767.60,77.4930
767.80,77.1652
768.00,76.5913
768.20,75.5692
768.40,75.1130
768.60,75.3332
768.80,76.0202
769.00,76.9345
769.20,77.6529
769.40,77.7493
769.60,77.3747
769.80,76.7914
770.00,75.9896
770.20,75.0917
770.40,75.4382
770.60,75.9117
770.80,76.8835
771.00,77.6295
771.20,78.0592
771.40,77.6192
771.60,77.0873
771.80,76.0990
772.00,75.1254
772.20,75.5326
772.40,76.2074
772.60,76.8755
772.80,77.6303
773.00,78.1791
773.20,78.1498
773.40,77.2323
773.60,76.7350
773.80,75.1272
774.00,75.1996
774.20,75.8711
774.40,76.8914
774.60,77.8471
774.80,78.2606
775.00,78.5998
775.20,77.5999
775.40,76.8492
775.60,75.7698
775.80,75.3680
776.00,75.5653
776.20,76.4561
776.40,77.3890
776.60,78.3713
776.80,78.4467
777.00,78.0305
777.20,77.1357
777.40,76.0969
777.60,75.4749
777.80,75.6369
778.00,76.1923
778.20,77.2693
778.40,78.1198
778.60,78.5793
778.80,78.5333
779.00,78.0424
779.20,76.5406
779.40,75.7419
779.60,75.3016
779.80,76.0035
780.00,76.4986
780.20,78.0445
780.40,78.4951
780.60,78.3470
780.80,78.0995
781.00,77.4199
781.20,76.0084
781.40,75.5674
781.60,75.5070
781.80,76.6814
782.00,77.7944
782.20,78.5613
782.40,79.6236
782.60,78.9113
782.80,77.8453
783.00,76.9011
783.20,75.9626
783.40,75.7078
783.60,75.9363
783.80,77.1311
784.00,78.5016
784.20,79.1913
784.40,79.3891
784.60,78.2698
784.80,76.7633
785.00,76.0340
785.20,75.3145
785.40,75.9220
785.60,76.8529
785.80,78.1308
786.00,78.6041
786.20,79.3830
786.40,78.3424
786.60,77.5994
786.80,76.2784
787.00,75.2600
787.20,75.5906
787.40,76.4234
787.60,77.8494
787.80,78.9838
788.00,79.4422
788.20,79.0640
788.40,77.7742
788.60,76.4488
788.80,75.7740
789.00,75.7155
789.20,76.5869
789.40,77.4874
789.60,78.5737
789.80,79.3000
790.00,79.6983
790.20,78.7264
790.40,77.4053
790.60,76.3801
790.80,75.6908
791.00,75.7984
791.20,76.6419
791.40,78.2479
791.60,79.4274
791.80,80.1559
792.00,79.2035
792.20,78.2044
792.40,76.6181
792.60,75.7591
792.80,75.1908
793.00,76.2763
793.20,77.3725
793.40,78.8372
793.60,79.5423
793.80,79.4490
794.00,78.8225
794.20,77.4748
794.40,76.2240
794.60,75.6097
794.80,76.0342
795.00,76.7216
795.20,78.3091
795.40,79.2872
795.60,79.7862
795.80,79.4147
796.00,78.0806
796.20,77.2934
796.40,76.2801
796.60,75.7181
796.80,76.1529
797.00,77.5086
797.20,78.5338
797.40,79.9434
797.60,79.9788
797.80,79.3445
798.00,78.0629
798.20,76.9917
798.40,75.5768
798.60,75.7893
798.80,76.1073
799.00,77.5551
799.20,79.0976
799.40,80.0334
799.60,80.0257
799.80,79.3161
800.00,77.5946
