Batch,scan005
EV300,140607
Data Mode,A  None
Sample,"PC_22:0,MeOH,heated"
Cycle,Cycle01
Date Collected,8/10/16
Time Collected,9:30:07PM
Entries,Data Points
nm,A
190,0.2269
190.2,0.2678
190.4,0.2654
190.6,0.284
190.8,0.3943
191,0.1272
191.2,0.2205
191.4,0.1667
191.6,0.1947
191.8,0.2391
192,0.1884
192.2,0.2619
192.4,0.1864
192.6,0.2667
192.8,0.1993
193,0.1567
193.2,0.3192
193.4,0.2835
193.6,0.2604
193.8,0.2191
194,0.2592
194.2,0.2577
194.4,0.3435
194.6,0.2447
194.8,0.226
195,0.2507
195.2,0.2368
195.4,0.2804
195.6,0.2321
195.8,0.2444
196,0.2843
196.2,0.2636
196.4,0.3057
196.6,0.2248
196.8,0.211
197,0.2343
197.2,0.2921
197.4,0.2087
197.6,0.2489
197.8,0.231
198,0.2252
198.2,0.2491
198.4,0.2932
198.6,0.2783
198.8,0.2114
199,0.1761
199.2,0.2554
199.4,0.2289
199.6,0.2491
199.8,0.2886
200,0.2615
200.2,0.2752
200.4,0.2124
200.6,0.267
200.8,0.2228
201,0.2637
201.2,0.2739
201.4,0.2754
201.6,0.2597
201.8,0.2704
202,0.2397
202.2,0.2786
202.4,0.2227
202.6,0.2778
202.8,0.2378
203,0.2494
203.2,0.2828
203.4,0.306
203.6,0.2414
203.8,0.2695
204,0.2419
204.2,0.2851
204.4,0.2399
204.6,0.2496
204.8,0.2296
205,0.2598
205.2,0.2388
205.4,0.2314
205.6,0.229
205.8,0.2591
206,0.2386
206.2,0.2448
206.4,0.2421
206.6,0.2599
206.8,0.2794
207,0.2563
207.2,0.2339
207.4,0.2357
207.6,0.2626
207.8,0.2337
208,0.2648
208.2,0.1912
208.4,0.2626
208.6,0.2958
208.8,0.2741
209,0.2681
209.2,0.2399
209.4,0.253
209.6,0.2759
209.8,0.2696
210,0.294
210.2,0.3016
210.4,0.2715
210.6,0.2559
210.8,0.2625
211,0.2985
211.2,0.3054
211.4,0.3282
211.6,0.3183
211.8,0.3207
212,0.3502
212.2,0.3497
212.4,0.3815
212.6,0.3825
212.8,0.4156
213,0.4527
213.2,0.4357
213.4,0.4495
213.6,0.4623
213.8,0.4837
214,0.4957
214.2,0.5305
214.4,0.5505
214.6,0.5633
214.8,0.5744
215,0.6239
215.2,0.6404
215.4,0.658
215.6,0.6826
215.8,0.7113
216,0.7335
216.2,0.7532
216.4,0.7844
216.6,0.8002
216.8,0.8236
217,0.8482
217.2,0.883
217.4,0.8982
217.6,0.9232
217.8,0.946
218,0.9694
218.2,0.9899
218.4,1.0231
218.6,1.0414
218.8,1.0674
219,1.0936
219.2,1.1139
219.4,1.1374
219.6,1.1647
219.8,1.1908
220,1.2103
220.2,1.2249
220.4,1.2448
220.6,1.2612
220.8,1.2855
221,1.3099
221.2,1.3306
221.4,1.3546
221.6,1.3723
221.8,1.3965
222,1.4207
222.2,1.4398
222.4,1.4541
222.6,1.4704
222.8,1.4883
223,1.3696
223.2,1.3741
223.4,1.3823
223.6,1.4076
223.8,1.424
224,1.4481
224.2,1.4709
224.4,1.4918
224.6,1.5038
224.8,1.5158
225,1.5365
225.2,1.5399
225.4,1.556
225.6,1.5678
225.8,1.5838
226,1.6102
226.2,1.626
226.4,1.6381
226.6,1.6579
226.8,1.6678
227,1.6759
227.2,1.6891
227.4,1.6894
227.6,1.6972
227.8,1.705
228,1.7139
228.2,1.7191
228.4,1.7223
228.6,1.7226
228.8,1.7226
229,1.7214
229.2,1.724
229.4,1.7226
229.6,1.7157
229.8,1.7009
230,1.6844
230.2,1.6652
230.4,1.6435
230.6,1.6222
230.8,1.5964
231,1.572
231.2,1.5525
231.4,1.5323
231.6,1.5135
231.8,1.4911
232,1.4674
232.2,1.4404
232.4,1.4109
232.6,1.3804
232.8,1.3512
233,1.3215
233.2,1.2921
233.4,1.2613
233.6,1.2344
233.8,1.2073
234,1.1817
234.2,1.1594
234.4,1.1346
234.6,1.1107
234.8,1.0857
235,1.0604
235.2,1.0339
235.4,1.0079
235.6,0.9814
235.8,0.9551
236,0.9299
236.2,0.9069
236.4,0.8848
236.6,0.8649
236.8,0.8453
237,0.8252
237.2,0.8051
237.4,0.7832
237.6,0.7629
237.8,0.7433
238,0.7257
238.2,0.7083
238.4,0.6929
238.6,0.6791
238.8,0.6656
239,0.6495
239.2,0.6338
239.4,0.6189
239.6,0.6049
239.8,0.5912
240,0.5776
240.2,0.5645
240.4,0.5521
240.6,0.5395
240.8,0.527
241,0.5145
241.2,0.5033
241.4,0.4917
241.6,0.4808
241.8,0.4698
242,0.4595
242.2,0.4499
242.4,0.4401
242.6,0.4312
242.8,0.4229
243,0.4144
243.2,0.4065
243.4,0.399
243.6,0.3915
243.8,0.3831
244,0.3751
244.2,0.3662
244.4,0.3569
244.6,0.3487
244.8,0.3418
245,0.3331
245.2,0.3267
245.4,0.3189
245.6,0.3115
245.8,0.3044
246,0.2983
246.2,0.2921
246.4,0.2848
246.6,0.2784
246.8,0.2725
247,0.2674
247.2,0.2625
247.4,0.2584
247.6,0.2548
247.8,0.2513
248,0.2473
248.2,0.2428
248.4,0.2386
248.6,0.2345
248.8,0.23
249,0.2262
249.2,0.2218
249.4,0.2181
249.6,0.214
249.8,0.2097
250,0.2056
250.2,0.2013
250.4,0.1977
250.6,0.1936
250.8,0.1897
251,0.1871
251.2,0.1838
251.4,0.1804
251.6,0.1772
251.8,0.1745
252,0.1721
252.2,0.1699
252.4,0.1674
252.6,0.1659
252.8,0.1639
253,0.1622
253.2,0.16
253.4,0.1586
253.6,0.1562
253.8,0.154
254,0.1518
254.2,0.1506
254.4,0.1485
254.6,0.1467
254.8,0.1442
255,0.1431
255.2,0.1414
255.4,0.1396
255.6,0.1381
255.8,0.1365
256,0.1349
256.2,0.1335
256.4,0.1325
256.6,0.1305
256.8,0.1288
257,0.1269
257.2,0.1252
257.4,0.1238
257.6,0.1223
257.8,0.1205
258,0.1189
258.2,0.1174
258.4,0.1156
258.6,0.1141
258.8,0.1125
259,0.1109
259.2,0.1098
259.4,0.1083
259.6,0.107
259.8,0.1058
260,0.1049
260.2,0.1043
260.4,0.1035
260.6,0.1027
260.8,0.1023
261,0.101
261.2,0.1004
261.4,0.0992
261.6,0.0979
261.8,0.0969
262,0.0959
262.2,0.0943
262.4,0.0932
262.6,0.0919
262.8,0.0907
263,0.0899
263.2,0.0897
263.4,0.0881
263.6,0.0868
263.8,0.0853
264,0.0852
264.2,0.0842
264.4,0.083
264.6,0.082
264.8,0.081
265,0.0803
265.2,0.0796
265.4,0.0787
265.6,0.078
265.8,0.0769
266,0.0759
266.2,0.0754
266.4,0.074
266.6,0.0732
266.8,0.0729
267,0.0726
267.2,0.0723
267.4,0.0719
267.6,0.0716
267.8,0.0712
268,0.0702
268.2,0.0692
268.4,0.0686
268.6,0.0681
268.8,0.0676
269,0.0672
269.2,0.0666
269.4,0.0658
269.6,0.0653
269.8,0.0647
270,0.0641
270.2,0.0632
270.4,0.0627
270.6,0.0622
270.8,0.0618
271,0.0611
271.2,0.0605
271.4,0.0585
271.6,0.0593
271.8,0.0576
272,0.0574
272.2,0.0574
272.4,0.0571
272.6,0.0562
272.8,0.0553
273,0.0544
273.2,0.0539
273.4,0.0534
273.6,0.0527
273.8,0.0525
274,0.0524
274.2,0.0521
274.4,0.0522
274.6,0.0514
274.8,0.0508
275,0.0512
275.2,0.0503
275.4,0.0499
275.6,0.0491
275.8,0.0486
276,0.0483
276.2,0.0478
276.4,0.0475
276.6,0.0468
276.8,0.0466
277,0.0462
277.2,0.0459
277.4,0.0457
277.6,0.0455
277.8,0.0454
278,0.0448
278.2,0.0453
278.4,0.0448
278.6,0.0446
278.8,0.0433
279,0.0438
279.2,0.0432
279.4,0.043
279.6,0.0425
279.8,0.0426
280,0.0418
280.2,0.0427
280.4,0.0417
280.6,0.0417
280.8,0.0409
281,0.0406
281.2,0.0407
281.4,0.0405
281.6,0.0392
281.8,0.0396
282,0.039
282.2,0.0391
282.4,0.0388
282.6,0.0385
282.8,0.0382
283,0.0389
283.2,0.0381
283.4,0.0388
283.6,0.0383
283.8,0.0376
284,0.0381
284.2,0.0391
284.4,0.0396
284.6,0.0396
284.8,0.0396
285,0.04
285.2,0.0403
285.4,0.0404
285.6,0.0399
285.8,0.0399
286,0.04
286.2,0.0394
286.4,0.0394
286.6,0.0401
286.8,0.0394
287,0.0398
287.2,0.0393
287.4,0.0396
287.6,0.0395
287.8,0.0397
288,0.0398
288.2,0.0392
288.4,0.0394
288.6,0.0388
288.8,0.0397
289,0.0396
289.2,0.0393
289.4,0.0398
289.6,0.0401
289.8,0.0405
290,0.0399
290.2,0.0401
290.4,0.0404
290.6,0.0402
290.8,0.0402
291,0.0406
291.2,0.0406
291.4,0.0402
291.6,0.0403
291.8,0.0397
292,0.0408
292.2,0.0404
292.4,0.04
292.6,0.0397
292.8,0.0405
293,0.0402
293.2,0.0398
293.4,0.0397
293.6,0.0393
293.8,0.0392
294,0.0395
294.2,0.0393
294.4,0.0394
294.6,0.039
294.8,0.0387
295,0.0384
295.2,0.0379
295.4,0.0378
295.6,0.0381
295.8,0.038
296,0.0376
296.2,0.0375
296.4,0.0376
296.6,0.0377
296.8,0.037
297,0.0373
297.2,0.0373
297.4,0.0374
297.6,0.0372
297.8,0.0376
298,0.037
298.2,0.0362
298.4,0.0376
298.6,0.0369
298.8,0.0371
299,0.0365
299.2,0.0361
299.4,0.0364
299.6,0.0361
299.8,0.0355
300,0.0359
300.2,0.0357
300.4,0.0357
300.6,0.0355
300.8,0.0344
301,0.035
301.2,0.0346
301.4,0.0343
301.6,0.0343
301.8,0.0341
302,0.0336
302.2,0.0333
302.4,0.0332
302.6,0.0332
302.8,0.0332
303,0.0329
303.2,0.0328
303.4,0.0323
303.6,0.0326
303.8,0.0327
304,0.0327
304.2,0.0324
304.4,0.032
304.6,0.0311
304.8,0.0313
305,0.0318
305.2,0.0311
305.4,0.0311
305.6,0.0307
305.8,0.0302
306,0.0302
306.2,0.0302
306.4,0.0296
306.6,0.0291
306.8,0.0293
307,0.0288
307.2,0.0289
307.4,0.0286
307.6,0.0285
307.8,0.0284
308,0.0281
308.2,0.0277
308.4,0.0281
308.6,0.0278
308.8,0.0275
309,0.0281
309.2,0.0281
309.4,0.0277
309.6,0.0289
309.8,0.0281
310,0.0287
310.2,0.0281
310.4,0.028
310.6,0.028
310.8,0.0275
311,0.0272
311.2,0.0266
311.4,0.0266
311.6,0.0262
311.8,0.0259
312,0.0251
312.2,0.025
312.4,0.0252
312.6,0.0252
312.8,0.0248
313,0.0244
313.2,0.0234
313.4,0.0235
313.6,0.0223
313.8,0.0224
314,0.0224
314.2,0.0216
314.4,0.0213
314.6,0.0212
314.8,0.0206
315,0.0208
315.2,0.0214
315.4,0.0228
315.6,0.024
315.8,0.0238
316,0.0236
316.2,0.0236
316.4,0.0234
316.6,0.0234
316.8,0.0241
317,0.0234
317.2,0.0229
317.4,0.0232
317.6,0.0227
317.8,0.0231
318,0.0226
318.2,0.0228
318.4,0.0231
318.6,0.0221
318.8,0.0222
319,0.0222
319.2,0.0225
319.4,0.0226
319.6,0.0223
319.8,0.0219
320,0.0222
320.2,0.0219
320.4,0.0216
320.6,0.0212
320.8,0.0213
321,0.0213
321.2,0.0203
321.4,0.0208
321.6,0.0214
321.8,0.022
322,0.0207
322.2,0.0203
322.4,0.021
322.6,0.0206
322.8,0.02
323,0.0201
323.2,0.0202
323.4,0.0197
323.6,0.0193
323.8,0.0193
324,0.0192
324.2,0.0186
324.4,0.0187
324.6,0.0187
324.8,0.0189
325,0.0184
325.2,0.0184
325.4,0.0178
325.6,0.0178
325.8,0.0174
326,0.0174
326.2,0.0176
326.4,0.0174
326.6,0.0174
326.8,0.0173
327,0.0173
327.2,0.0175
327.4,0.0171
327.6,0.0171
327.8,0.0166
328,0.0167
328.2,0.0167
328.4,0.0163
328.6,0.016
328.8,0.0161
329,0.0157
329.2,0.016
329.4,0.0155
329.6,0.0157
329.8,0.0156
330,0.0157
330.2,0.0152
330.4,0.0147
330.6,0.0146
330.8,0.0144
331,0.0135
331.2,0.0137
331.4,0.014
331.6,0.0133
331.8,0.0138
332,0.0132
332.2,0.0131
332.4,0.0131
332.6,0.0137
332.8,0.0127
333,0.0131
333.2,0.0124
333.4,0.012
333.6,0.0121
333.8,0.0118
334,0.0118
334.2,0.0119
334.4,0.0118
334.6,0.0122
334.8,0.012
335,0.012
335.2,0.0123
335.4,0.0118
335.6,0.0116
335.8,0.0117
336,0.0119
336.2,0.0113
336.4,0.0117
336.6,0.0117
336.8,0.0114
337,0.0116
337.2,0.0114
337.4,0.0115
337.6,0.0116
337.8,0.011
338,0.0112
338.2,0.0108
338.4,0.011
338.6,0.0115
338.8,0.0109
339,0.0115
339.2,0.0115
339.4,0.01
339.6,0.0107
339.8,0.0112
340,0.0106
340.2,0.0103
340.4,0.0102
340.6,0.0103
340.8,0.0104
341,0.01
341.2,0.0097
341.4,0.0102
341.6,0.0108
341.8,0.0111
342,0.011
342.2,0.011
342.4,0.0106
342.6,0.0106
342.8,0.0102
343,0.0107
343.2,0.0105
343.4,0.0103
343.6,0.0101
343.8,0.01
344,0.0098
344.2,0.0094
344.4,0.0098
344.6,0.0093
344.8,0.0095
345,0.0095
345.2,0.0101
345.4,0.0098
345.6,0.01
345.8,0.0095
346,0.0092
346.2,0.0095
346.4,0.0095
346.6,0.009
346.8,0.0093
347,0.0086
347.2,0.0096
347.4,0.0084
347.6,0.0091
347.8,0.0088
348,0.0091
348.2,0.0093
348.4,0.0086
348.6,0.0085
348.8,0.0086
349,0.0083
349.2,0.0082
349.4,0.0082
349.6,0.0093
349.8,0.0079
350,0.008
350.2,0.0072
350.4,0.0076
350.6,0.0078
350.8,0.0076
351,0.0073
351.2,0.0072
351.4,0.0074
351.6,0.0066
351.8,0.007
352,0.0071
352.2,0.0075
352.4,0.0072
352.6,0.0068
352.8,0.0076
353,0.0064
353.2,0.006
353.4,0.0063
353.6,0.0067
353.8,0.0062
354,0.0054
354.2,0.0057
354.4,0.0057
354.6,0.0064
354.8,0.0063
355,0.0056
355.2,0.0055
355.4,0.0056
355.6,0.0055
355.8,0.0054
356,0.0055
356.2,0.0061
356.4,0.0058
356.6,0.0057
356.8,0.0056
357,0.0056
357.2,0.0058
357.4,0.0047
357.6,0.0053
357.8,0.0053
358,0.005
358.2,0.0059
358.4,0.0055
358.6,0.0055
358.8,0.0054
359,0.0052
359.2,0.006
359.4,0.006
359.6,0.0054
359.8,0.006
360,0.0056
360.2,0.006
360.4,0.0053
360.6,0.0052
360.8,0.0058
361,0.0053
361.2,0.0053
361.4,0.0056
361.6,0.005
361.8,0.005
362,0.0053
362.2,0.0051
362.4,0.0054
362.6,0.0054
362.8,0.0056
363,0.0061
363.2,0.0057
363.4,0.0054
363.6,0.0057
363.8,0.0057
364,0.0067
364.2,0.006
364.4,0.0065
364.6,0.0063
364.8,0.0065
365,0.0069
365.2,0.0064
365.4,0.0063
365.6,0.0063
365.8,0.0064
366,0.006
366.2,0.0056
366.4,0.0064
366.6,0.0058
366.8,0.0062
367,0.0067
367.2,0.0066
367.4,0.0056
367.6,0.0061
367.8,0.0059
368,0.0061
368.2,0.0061
368.4,0.0061
368.6,0.0059
368.8,0.0053
369,0.0055
369.2,0.005
369.4,0.0061
369.6,0.0057
369.8,0.006
370,0.0065
370.2,0.0054
370.4,0.0068
370.6,0.0064
370.8,0.0061
371,0.0059
371.2,0.006
371.4,0.0069
371.6,0.0063
371.8,0.0062
372,0.0073
372.2,0.0054
372.4,0.0052
372.6,0.0053
372.8,0.0054
373,0.0058
373.2,0.0056
373.4,0.0061
373.6,0.0062
373.8,0.0063
374,0.0052
374.2,0.0057
374.4,0.0054
374.6,0.0045
374.8,0.0052
375,0.0058
375.2,0.0063
375.4,0.0053
375.6,0.0051
375.8,0.005
376,0.0052
376.2,0.0055
376.4,0.0048
376.6,0.0051
376.8,0.0059
377,0.0059
377.2,0.0066
377.4,0.0063
377.6,0.0064
377.8,0.0067
378,0.0062
378.2,0.0063
378.4,0.0067
378.6,0.0065
378.8,0.007
379,0.0063
379.2,0.007
379.4,0.0062
379.6,0.006
379.8,0.0067
380,0.0066
380.2,0.0058
380.4,0.0056
380.6,0.0061
380.8,0.0058
381,0.0054
381.2,0.006
381.4,0.0058
381.6,0.0055
381.8,0.0052
382,0.0063
382.2,0.0046
382.4,0.0053
382.6,0.0053
382.8,0.0047
383,0.0052
383.2,0.0052
383.4,0.005
383.6,0.0048
383.8,0.0049
384,0.0043
384.2,0.0047
384.4,0.0052
384.6,0.004
384.8,0.0052
385,0.004
385.2,0.0051
385.4,0.004
385.6,0.0043
385.8,0.0036
386,0.0034
386.2,0.0035
386.4,0.003
386.6,0.0031
386.8,0.0021
387,0.0027
387.2,0.0024
387.4,0.0026
387.6,0.0027
387.8,0.0033
388,0.0024
388.2,0.0025
388.4,0.0028
388.6,0.0021
388.8,0.0029
389,0.0027
389.2,0.0022
389.4,0.0022
389.6,0.0022
389.8,0.0026
390,0.0018
390.2,0.0023
390.4,0.0023
390.6,0.0026
390.8,0.002
391,0.002
391.2,0.0027
391.4,0.0019
391.6,0.0024
391.8,0.002
392,0.0027
392.2,0.0016
392.4,0.0024
392.6,0.0027
392.8,0.002
393,0.002
393.2,0.0028
393.4,0.0028
393.6,0.0029
393.8,0.0028
394,0.0024
394.2,0.0027
394.4,0.0019
394.6,0.0025
394.8,0.0027
395,0.0027
395.2,0.0028
395.4,0.0026
395.6,0.0028
395.8,0.0021
396,0.003
396.2,0.0026
396.4,0.0027
396.6,0.0023
396.8,0.0024
397,0.0025
397.2,0.0027
397.4,0.0024
397.6,0.0031
397.8,0.0032
398,0.003
398.2,0.0023
398.4,0.0017
398.6,0.002
398.8,0.0022
399,0.002
399.2,0.0031
399.4,0.0023
399.6,0.0026
399.8,0.0024
400,0.0029
400.2,0.0024
400.4,0.0024
400.6,0.0018
400.8,0.0021
401,0.0019
401.2,0.0025
401.4,0.0017
401.6,0.002
401.8,0.0019
402,0.0022
402.2,0.0026
402.4,0.0018
402.6,0.0021
402.8,0.0021
403,0.0025
403.2,0.0018
403.4,0.0021
403.6,0.0019
403.8,0.0015
404,0.0022
404.2,0.0023
404.4,0.0018
404.6,0.0021
404.8,0.0025
405,0.0025
405.2,0.0025
405.4,0.0023
405.6,0.0018
405.8,0.002
406,0.0021
406.2,0.002
406.4,0.0019
406.6,0.0021
406.8,0.0016
407,0.0024
407.2,0.0025
407.4,0.0017
407.6,0.0018
407.8,0.0016
408,0.0019
408.2,0.0014
408.4,0.0018
408.6,0.0011
408.8,0.0013
409,0.0014
409.2,0.0017
409.4,0.0016
409.6,0.0016
409.8,0.0012
410,0.0016
410.2,0.0013
410.4,0.0013
410.6,0.0011
410.8,0.0017
411,0.0017
411.2,0.002
411.4,0.0012
411.6,0.0019
411.8,0.0019
412,0.0019
412.2,0.0017
412.4,0.002
412.6,0.0015
412.8,0.0017
413,0.0019
413.2,0.0015
413.4,0.0016
413.6,0.0021
413.8,0.0018
414,0.0018
414.2,0.0017
414.4,0.0016
414.6,0.0015
414.8,0.002
415,0.0017
415.2,0.0015
415.4,0.0019
415.6,0.002
415.8,0.0016
416,0.0017
416.2,0.0018
416.4,0.002
416.6,0.002
416.8,0.0023
417,0.0038
417.2,0.0041
417.4,0.0042
417.6,0.0043
417.8,0.0042
418,0.0045
418.2,0.0043
418.4,0.0046
418.6,0.0046
418.8,0.005
419,0.005
419.2,0.0047
419.4,0.005
419.6,0.0046
419.8,0.0042
420,0.0044
420.2,0.0041
420.4,0.0047
420.6,0.0044
420.8,0.0048
421,0.0043
421.2,0.0046
421.4,0.0047
421.6,0.0043
421.8,0.0041
422,0.0047
422.2,0.0046
422.4,0.0049
422.6,0.0042
422.8,0.0042
423,0.0045
423.2,0.0044
423.4,0.0043
423.6,0.0044
423.8,0.0046
424,0.0049
424.2,0.0038
424.4,0.0046
424.6,0.004
424.8,0.0046
425,0.0045
425.2,0.0045
425.4,0.0047
425.6,0.0045
425.8,0.0047
426,0.0047
426.2,0.0045
426.4,0.0049
426.6,0.0052
426.8,0.005
427,0.0048
427.2,0.0047
427.4,0.0045
427.6,0.0051
427.8,0.0058
428,0.0056
428.2,0.0058
428.4,0.0057
428.6,0.0056
428.8,0.0055
429,0.0061
429.2,0.0059
429.4,0.0054
429.6,0.0057
429.8,0.0067
430,0.0065
430.2,0.0066
430.4,0.0068
430.6,0.0067
430.8,0.0062
431,0.0065
431.2,0.0068
431.4,0.0062
431.6,0.0072
431.8,0.0064
432,0.0066
432.2,0.006
432.4,0.0065
432.6,0.007
432.8,0.0063
433,0.0063
433.2,0.0067
433.4,0.0063
433.6,0.0062
433.8,0.0066
434,0.0067
434.2,0.0068
434.4,0.0069
434.6,0.007
434.8,0.0065
435,0.0068
435.2,0.0075
435.4,0.0069
435.6,0.0072
435.8,0.0074
436,0.0064
436.2,0.0068
436.4,0.0068
436.6,0.0065
436.8,0.0066
437,0.007
437.2,0.0067
437.4,0.0062
437.6,0.007
437.8,0.0066
438,0.0064
438.2,0.0062
438.4,0.0069
438.6,0.0071
438.8,0.0071
439,0.0064
439.2,0.0064
439.4,0.0065
439.6,0.0062
439.8,0.0062
440,0.0064
440.2,0.0067
440.4,0.0062
440.6,0.0062
440.8,0.0067
441,0.0069
441.2,0.0068
441.4,0.0062
441.6,0.0068
441.8,0.0063
442,0.0067
442.2,0.0067
442.4,0.0063
442.6,0.0063
442.8,0.0065
443,0.0064
443.2,0.006
443.4,0.0064
443.6,0.0064
443.8,0.007
444,0.0061
444.2,0.006
444.4,0.0061
444.6,0.0063
444.8,0.0065
445,0.0059
445.2,0.0064
445.4,0.0067
445.6,0.0065
445.8,0.0063
446,0.0061
446.2,0.0064
446.4,0.0062
446.6,0.0061
446.8,0.0056
447,0.0064
447.2,0.0057
447.4,0.0062
447.6,0.0064
447.8,0.0059
448,0.0061
448.2,0.0059
448.4,0.0064
448.6,0.0063
448.8,0.006
449,0.0068
449.2,0.0059
449.4,0.0065
449.6,0.0066
449.8,0.0062
450,0.0062
450.2,0.0062
450.4,0.0062
450.6,0.006
450.8,0.006
451,0.0073
451.2,0.0065
451.4,0.0061
451.6,0.0072
451.8,0.0068
452,0.0062
452.2,0.0065
452.4,0.0068
452.6,0.0068
452.8,0.0066
453,0.0067
453.2,0.0063
453.4,0.0066
453.6,0.0073
453.8,0.0066
454,0.0064
454.2,0.0064
454.4,0.0066
454.6,0.0059
454.8,0.006
455,0.0064
455.2,0.0067
455.4,0.0068
455.6,0.0068
455.8,0.0063
456,0.0069
456.2,0.0075
456.4,0.0075
456.6,0.0073
456.8,0.0072
457,0.0073
457.2,0.0078
457.4,0.0078
457.6,0.0075
457.8,0.0069
458,0.0073
458.2,0.007
458.4,0.0074
458.6,0.007
458.8,0.0074
459,0.0071
459.2,0.007
459.4,0.0068
459.6,0.007
459.8,0.0068
460,0.0066
460.2,0.0071
460.4,0.0071
460.6,0.007
460.8,0.007
461,0.0071
461.2,0.007
461.4,0.0071
461.6,0.0065
461.8,0.0066
462,0.0069
462.2,0.0065
462.4,0.0065
462.6,0.0065
462.8,0.0059
463,0.0055
463.2,0.0063
463.4,0.0056
463.6,0.0058
463.8,0.0065
464,0.0061
464.2,0.006
464.4,0.0065
464.6,0.0062
464.8,0.0064
465,0.0062
465.2,0.0064
465.4,0.0062
465.6,0.0064
465.8,0.006
466,0.0061
466.2,0.0052
466.4,0.0057
466.6,0.0061
466.8,0.0064
467,0.0061
467.2,0.0059
467.4,0.0061
467.6,0.0061
467.8,0.006
468,0.0059
468.2,0.0057
468.4,0.0059
468.6,0.0064
468.8,0.006
469,0.0059
469.2,0.0067
469.4,0.0068
469.6,0.0066
469.8,0.0067
470,0.0067
470.2,0.0068
470.4,0.0067
470.6,0.0073
470.8,0.0074
471,0.0069
471.2,0.0064
471.4,0.0066
471.6,0.0067
471.8,0.0069
472,0.0071
472.2,0.0072
472.4,0.0069
472.6,0.0062
472.8,0.0072
473,0.0066
473.2,0.0067
473.4,0.0067
473.6,0.0072
473.8,0.0068
474,0.0064
474.2,0.006
474.4,0.0073
474.6,0.0063
474.8,0.0067
475,0.0076
475.2,0.0068
475.4,0.0067
475.6,0.007
475.8,0.0072
476,0.0069
476.2,0.0065
476.4,0.0061
476.6,0.0065
476.8,0.0066
477,0.0068
477.2,0.0071
477.4,0.0065
477.6,0.0066
477.8,0.0072
478,0.0066
478.2,0.007
478.4,0.0067
478.6,0.0064
478.8,0.0072
479,0.0065
479.2,0.0068
479.4,0.0058
479.6,0.0064
479.8,0.0063
480,0.0059
480.2,0.0065
480.4,0.0063
480.6,0.0065
480.8,0.0068
481,0.0066
481.2,0.0063
481.4,0.0071
481.6,0.0061
481.8,0.0067
482,0.0067
482.2,0.0065
482.4,0.0066
482.6,0.0058
482.8,0.0063
483,0.0062
483.2,0.0065
483.4,0.0063
483.6,0.0062
483.8,0.0062
484,0.0063
484.2,0.0062
484.4,0.0064
484.6,0.0065
484.8,0.0067
485,0.0066
485.2,0.0063
485.4,0.0065
485.6,0.0061
485.8,0.0069
486,0.0062
486.2,0.0061
486.4,0.0062
486.6,0.0059
486.8,0.0057
487,0.0058
487.2,0.0056
487.4,0.0057
487.6,0.0054
487.8,0.0058
488,0.0058
488.2,0.0056
488.4,0.0058
488.6,0.0055
488.8,0.0054
489,0.0054
489.2,0.0056
489.4,0.0057
489.6,0.0051
489.8,0.0054
490,0.0051
490.2,0.0052
490.4,0.0047
490.6,0.0048
490.8,0.005
491,0.0043
491.2,0.0046
491.4,0.0049
491.6,0.0047
491.8,0.0052
492,0.0051
492.2,0.0052
492.4,0.0059
492.6,0.0049
492.8,0.0047
493,0.0047
493.2,0.0055
493.4,0.0052
493.6,0.0056
493.8,0.0049
494,0.0051
494.2,0.0047
494.4,0.0047
494.6,0.0057
494.8,0.0042
495,0.0047
495.2,0.0053
495.4,0.0049
495.6,0.0054
495.8,0.0052
496,0.0045
496.2,0.0052
496.4,0.0046
496.6,0.005
496.8,0.0053
497,0.0048
497.2,0.0045
497.4,0.0049
497.6,0.0053
497.8,0.005
498,0.0046
498.2,0.0051
498.4,0.005
498.6,0.0045
498.8,0.005
499,0.0052
499.2,0.0052
499.4,0.0049
499.6,0.0053
499.8,0.0048
500,0.005
500.2,0.0052
500.4,0.0049
500.6,0.0045
500.8,0.0047
501,0.0052
501.2,0.0047
501.4,0.0049
501.6,0.0055
501.8,0.0058
502,0.0053
502.2,0.0042
502.4,0.005
502.6,0.0044
502.8,0.0049
503,0.0044
503.2,0.0043
503.4,0.0048
503.6,0.0042
503.8,0.0048
504,0.0047
504.2,0.004
504.4,0.0047
504.6,0.0041
504.8,0.0044
505,0.0048
505.2,0.0044
505.4,0.0048
505.6,0.0048
505.8,0.0048
506,0.0039
506.2,0.0051
506.4,0.0052
506.6,0.0038
506.8,0.0048
507,0.0043
507.2,0.0046
507.4,0.005
507.6,0.0051
507.8,0.004
508,0.0045
508.2,0.005
508.4,0.0037
508.6,0.0041
508.8,0.0043
509,0.0049
509.2,0.0046
509.4,0.0049
509.6,0.0044
509.8,0.0044
510,0.0034
510.2,0.0043
510.4,0.0044
510.6,0.005
510.8,0.0044
511,0.0037
511.2,0.005
511.4,0.0045
511.6,0.005
511.8,0.0053
512,0.0037
512.2,0.0047
512.4,0.005
512.6,0.0039
512.8,0.0043
513,0.0045
513.2,0.0041
513.4,0.004
513.6,0.0041
513.8,0.0042
514,0.0039
514.2,0.0039
514.4,0.0037
514.6,0.0039
514.8,0.0042
515,0.0053
515.2,0.0043
515.4,0.004
515.6,0.0039
515.8,0.0042
516,0.0048
516.2,0.0041
516.4,0.0045
516.6,0.0043
516.8,0.0039
517,0.0044
517.2,0.0039
517.4,0.0041
517.6,0.0049
517.8,0.0041
518,0.0052
518.2,0.0048
518.4,0.0042
518.6,0.0033
518.8,0.0039
519,0.0045
519.2,0.0045
519.4,0.0044
519.6,0.005
519.8,0.0047
520,0.0052
520.2,0.0051
520.4,0.0047
520.6,0.0047
520.8,0.0052
521,0.0047
521.2,0.0048
521.4,0.0047
521.6,0.005
521.8,0.0041
522,0.0049
522.2,0.004
522.4,0.0048
522.6,0.0036
522.8,0.0046
523,0.0047
523.2,0.0048
523.4,0.0053
523.6,0.0044
523.8,0.0045
524,0.0046
524.2,0.0047
524.4,0.0043
524.6,0.005
524.8,0.0047
525,0.0045
525.2,0.0047
525.4,0.0039
525.6,0.0057
525.8,0.0048
526,0.0048
526.2,0.0046
526.4,0.004
526.6,0.0047
526.8,0.0047
527,0.0046
527.2,0.0045
527.4,0.004
527.6,0.0049
527.8,0.0044
528,0.005
528.2,0.0043
528.4,0.0041
528.6,0.0043
528.8,0.0041
529,0.004
529.2,0.0043
529.4,0.0047
529.6,0.0043
529.8,0.0048
530,0.0046
530.2,0.0041
530.4,0.004
530.6,0.0044
530.8,0.0042
531,0.0044
531.2,0.0041
531.4,0.0045
531.6,0.0045
531.8,0.0042
532,0.0038
532.2,0.0041
532.4,0.004
532.6,0.0042
532.8,0.0036
533,0.0041
533.2,0.0036
533.4,0.0041
533.6,0.0044
533.8,0.0045
534,0.0044
534.2,0.0039
534.4,0.0038
534.6,0.0042
534.8,0.0043
535,0.0039
535.2,0.0038
535.4,0.0045
535.6,0.0043
535.8,0.0038
536,0.0043
536.2,0.004
536.4,0.0043
536.6,0.0041
536.8,0.0038
537,0.0044
537.2,0.0043
537.4,0.0042
537.6,0.0043
537.8,0.0037
538,0.004
538.2,0.0041
538.4,0.0034
538.6,0.0033
538.8,0.0039
539,0.0037
539.2,0.0028
539.4,0.0033
539.6,0.0035
539.8,0.0038
540,0.0037
540.2,0.0035
540.4,0.0028
540.6,0.0036
540.8,0.0033
541,0.0029
541.2,0.0032
541.4,0.0032
541.6,0.0037
541.8,0.0033
542,0.003
542.2,0.0038
542.4,0.0039
542.6,0.0041
542.8,0.0034
543,0.0036
543.2,0.0032
543.4,0.0033
543.6,0.0039
543.8,0.0036
544,0.004
544.2,0.0037
544.4,0.0039
544.6,0.0041
544.8,0.0041
545,0.0042
545.2,0.0052
545.4,0.0039
545.6,0.0032
545.8,0.0042
546,0.0047
546.2,0.0045
546.4,0.0037
546.6,0.0041
546.8,0.0039
547,0.0039
547.2,0.0042
547.4,0.004
547.6,0.004
547.8,0.003
548,0.0045
548.2,0.0041
548.4,0.0043
548.6,0.0038
548.8,0.0045
549,0.0051
549.2,0.0044
549.4,0.0041
549.6,0.0053
549.8,0.0036
550,0.0044
550.2,0.0031
550.4,0.0035
550.6,0.004
550.8,0.0039
551,0.0039
551.2,0.0034
551.4,0.0048
551.6,0.0035
551.8,0.0038
552,0.0037
552.2,0.0035
552.4,0.004
552.6,0.0049
552.8,0.0037
553,0.0036
553.2,0.0042
553.4,0.0033
553.6,0.0047
553.8,0.0048
554,0.0041
554.2,0.0054
554.4,0.0043
554.6,0.0045
554.8,0.0047
555,0.0056
555.2,0.0061
555.4,0.0053
555.6,0.0051
555.8,0.0055
556,0.0047
556.2,0.005
556.4,0.0053
556.6,0.0058
556.8,0.0054
557,0.0052
557.2,0.006
557.4,0.0048
557.6,0.0036
557.8,0.0045
558,0.0057
558.2,0.0059
558.4,0.0048
558.6,0.0046
558.8,0.0037
559,0.005
559.2,0.0055
559.4,0.0056
559.6,0.0042
559.8,0.0063
560,0.0054
560.2,0.0056
560.4,0.0058
560.6,0.0052
560.8,0.0048
561,0.0057
561.2,0.0045
561.4,0.0047
561.6,0.0057
561.8,0.0054
562,0.005
562.2,0.0055
562.4,0.0055
562.6,0.0056
562.8,0.0051
563,0.0059
563.2,0.0058
563.4,0.0056
563.6,0.0056
563.8,0.005
564,0.0056
564.2,0.0054
564.4,0.0047
564.6,0.0048
564.8,0.0051
565,0.004
565.2,0.0045
565.4,0.005
565.6,0.0048
565.8,0.0048
566,0.0049
566.2,0.0042
566.4,0.0051
566.6,0.0051
566.8,0.0056
567,0.0052
567.2,0.0058
567.4,0.0058
567.6,0.0056
567.8,0.0055
568,0.0039
568.2,0.0054
568.4,0.0052
568.6,0.0049
568.8,0.005
569,0.0053
569.2,0.0053
569.4,0.0043
569.6,0.0043
569.8,0.0059
570,0.0058
570.2,0.0057
570.4,0.005
570.6,0.0054
570.8,0.0049
571,0.0059
571.2,0.0047
571.4,0.0039
571.6,0.0054
571.8,0.0041
572,0.0053
572.2,0.0056
572.4,0.0048
572.6,0.0042
572.8,0.0055
573,0.0058
573.2,0.0058
573.4,0.005
573.6,0.0059
573.8,0.0059
574,0.0043
574.2,0.0054
574.4,0.0054
574.6,0.0042
574.8,0.0043
575,0.0058
575.2,0.0052
575.4,0.0052
575.6,0.0057
575.8,0.0054
576,0.0052
576.2,0.0044
576.4,0.0041
576.6,0.0063
576.8,0.0058
577,0.0044
577.2,0.0052
577.4,0.0047
577.6,0.005
577.8,0.0066
578,0.0055
578.2,0.0041
578.4,0.0053
578.6,0.0059
578.8,0.006
579,0.0049
579.2,0.0053
579.4,0.0056
579.6,0.0046
579.8,0.0064
580,0.0072
580.2,0.006
580.4,0.0048
580.6,0.0068
580.8,0.0038
581,0.0059
581.2,0.0054
581.4,0.0063
581.6,0.0061
581.8,0.0045
582,0.0052
582.2,0.006
582.4,0.0063
582.6,0.0053
582.8,0.0063
583,0.0062
583.2,0.0059
583.4,0.0072
583.6,0.0073
583.8,0.0049
584,0.0054
584.2,0.0054
584.4,0.0055
584.6,0.0078
584.8,0.0041
585,0.0066
585.2,0.0068
585.4,0.0071
585.6,0.0059
585.8,0.0067
586,0.0052
586.2,0.0088
586.4,0.0054
586.6,0.0074
586.8,0.0058
587,0.0073
587.2,0.0061
587.4,0.008
587.6,0.0056
587.8,0.0099
588,0.0051
588.2,0.0067
588.4,0.0023
588.6,0.0073
588.8,0.0067
589,0.0096
589.2,0.0082
589.4,0.0058
589.6,0.0085
589.8,0.0072
590,0.0059
590.2,0.0082
590.4,0.0076
590.6,0.0074
590.8,0.0076
591,0.0074
591.2,0.0072
591.4,0.0091
591.6,0.0085
591.8,0.0079
592,0.0087
592.2,0.0083
592.4,0.0078
592.6,0.0079
592.8,0.0081
593,0.0093
593.2,0.0084
593.4,0.0079
593.6,0.0075
593.8,0.0088
594,0.0084
594.2,0.0083
594.4,0.0087
594.6,0.0089
594.8,0.0089
595,0.009
595.2,0.0088
595.4,0.0082
595.6,0.0085
595.8,0.009
596,0.0095
596.2,0.0098
596.4,0.0097
596.6,0.0094
596.8,0.0105
597,0.0105
597.2,0.0095
597.4,0.0099
597.6,0.0106
597.8,0.0105
598,0.0102
598.2,0.0109
598.4,0.0098
598.6,0.011
598.8,0.0101
599,0.01
599.2,0.0103
599.4,0.0096
599.6,0.0109
599.8,0.01
600,0.0103
600.2,0.0112
600.4,0.0101
600.6,0.0118
600.8,0.0122
601,0.0122
601.2,0.0111
601.4,0.0112
601.6,0.0128
601.8,0.0124
602,0.0113
602.2,0.0117
602.4,0.0119
602.6,0.0108
602.8,0.0124
603,0.012
603.2,0.0119
603.4,0.0127
603.6,0.0121
603.8,0.0126
604,0.0129
604.2,0.0132
604.4,0.0133
604.6,0.0119
604.8,0.0133
605,0.0133
605.2,0.0137
605.4,0.0141
605.6,0.0141
605.8,0.0139
606,0.014
606.2,0.0142
606.4,0.0137
606.6,0.0146
606.8,0.0143
607,0.0151
607.2,0.0147
607.4,0.0145
607.6,0.0139
607.8,0.0138
608,0.0145
608.2,0.0152
608.4,0.0151
608.6,0.0148
608.8,0.0146
609,0.0149
609.2,0.0146
609.4,0.0147
609.6,0.0159
609.8,0.0152
610,0.015
610.2,0.0157
610.4,0.0168
610.6,0.0171
610.8,0.0173
611,0.0165
611.2,0.0173
611.4,0.0163
611.6,0.0174
611.8,0.0163
612,0.0173
612.2,0.0171
612.4,0.0177
612.6,0.0167
612.8,0.0189
613,0.0177
613.2,0.0174
613.4,0.0191
613.6,0.0169
613.8,0.0174
614,0.0177
614.2,0.0194
614.4,0.0187
614.6,0.0174
614.8,0.0183
615,0.0184
615.2,0.0188
615.4,0.0199
615.6,0.0193
615.8,0.0194
616,0.0176
616.2,0.0203
616.4,0.0195
616.6,0.0198
616.8,0.0189
617,0.0203
617.2,0.0201
617.4,0.0206
617.6,0.0201
617.8,0.0203
618,0.021
618.2,0.02
618.4,0.0213
618.6,0.0226
618.8,0.0213
619,0.0221
619.2,0.0219
619.4,0.0213
619.6,0.0223
619.8,0.0239
620,0.0241
620.2,0.0227
620.4,0.0226
620.6,0.0221
620.8,0.0237
621,0.0238
621.2,0.0227
621.4,0.0243
621.6,0.0226
621.8,0.0229
622,0.0237
622.2,0.024
622.4,0.0248
622.6,0.0244
622.8,0.0248
623,0.024
623.2,0.0243
623.4,0.0248
623.6,0.0246
623.8,0.025
624,0.0253
624.2,0.0267
624.4,0.026
624.6,0.0258
624.8,0.0264
625,0.0252
625.2,0.0264
625.4,0.0267
625.6,0.026
625.8,0.0272
626,0.0285
626.2,0.0271
626.4,0.0278
626.6,0.0272
626.8,0.0268
627,0.028
627.2,0.0281
627.4,0.0283
627.6,0.0291
627.8,0.03
628,0.0294
628.2,0.0296
628.4,0.0296
628.6,0.0294
628.8,0.0306
629,0.0301
629.2,0.0309
629.4,0.0306
629.6,0.031
629.8,0.03
630,0.0306
630.2,0.0312
630.4,0.0311
630.6,0.0305
630.8,0.0323
631,0.0328
631.2,0.0325
631.4,0.0316
631.6,0.0328
631.8,0.0319
632,0.0326
632.2,0.0332
632.4,0.0328
632.6,0.0339
632.8,0.0344
633,0.0345
633.2,0.0343
633.4,0.0337
633.6,0.0355
633.8,0.0352
634,0.0354
634.2,0.0351
634.4,0.0341
634.6,0.0354
634.8,0.0353
635,0.0353
635.2,0.0373
635.4,0.0369
635.6,0.0376
635.8,0.0365
636,0.0371
636.2,0.0374
636.4,0.0388
636.6,0.0361
636.8,0.037
637,0.0369
637.2,0.0377
637.4,0.0396
637.6,0.0392
637.8,0.0388
638,0.0386
638.2,0.0386
638.4,0.0391
638.6,0.04
638.8,0.0395
639,0.0408
639.2,0.041
639.4,0.0392
639.6,0.0408
639.8,0.0381
640,0.0419
640.2,0.0416
640.4,0.0414
640.6,0.0409
640.8,0.043
641,0.0413
641.2,0.0441
641.4,0.0428
641.6,0.0434
641.8,0.0426
642,0.0422
642.2,0.0433
642.4,0.0445
642.6,0.0423
642.8,0.0432
643,0.0429
643.2,0.0426
643.4,0.0449
643.6,0.0426
643.8,0.0461
644,0.0437
644.2,0.0445
644.4,0.0452
644.6,0.0462
644.8,0.0449
645,0.0462
645.2,0.048
645.4,0.0455
645.6,0.0469
645.8,0.0467
646,0.0472
646.2,0.0478
646.4,0.0474
646.6,0.0484
646.8,0.0481
647,0.0476
647.2,0.0491
647.4,0.0492
647.6,0.0506
647.8,0.0489
648,0.0491
648.2,0.0499
648.4,0.0488
648.6,0.0501
648.8,0.0509
649,0.0519
649.2,0.053
649.4,0.0515
649.6,0.0517
649.8,0.0531
650,0.0528
650.2,0.0519
650.4,0.0538
650.6,0.0533
650.8,0.0538
651,0.0533
651.2,0.054
651.4,0.0535
651.6,0.0533
651.8,0.0546
652,0.0554
652.2,0.0548
652.4,0.0558
652.6,0.0561
652.8,0.0569
653,0.0562
653.2,0.0542
653.4,0.0565
653.6,0.0575
653.8,0.0577
654,0.0576
654.2,0.0574
654.4,0.0587
654.6,0.0583
654.8,0.0596
655,0.0576
655.2,0.0593
655.4,0.0598
655.6,0.0605
655.8,0.0608
656,0.0602
656.2,0.0597
656.4,0.0605
656.6,0.0603
656.8,0.0634
657,0.0593
657.2,0.0616
657.4,0.0614
657.6,0.0621
657.8,0.0634
658,0.0609
658.2,0.0622
658.4,0.0621
658.6,0.0636
658.8,0.0631
659,0.063
659.2,0.0647
659.4,0.0652
659.6,0.0635
659.8,0.0653
660,0.0651
660.2,0.066
660.4,0.0652
660.6,0.0678
660.8,0.0671
661,0.0666
661.2,0.0678
661.4,0.0691
661.6,0.0687
661.8,0.0683
662,0.0678
662.2,0.0688
662.4,0.0701
662.6,0.0692
662.8,0.0694
663,0.07
663.2,0.0722
663.4,0.0709
663.6,0.0701
663.8,0.0708
664,0.0707
664.2,0.071
664.4,0.0705
664.6,0.0727
664.8,0.0724
665,0.0739
665.2,0.0728
665.4,0.0736
665.6,0.0736
665.8,0.0734
666,0.0746
666.2,0.0774
666.4,0.074
666.6,0.0753
666.8,0.0728
667,0.0758
667.2,0.076
667.4,0.0762
667.6,0.0748
667.8,0.0761
668,0.0771
668.2,0.0772
668.4,0.0778
668.6,0.0789
668.8,0.0785
669,0.0772
669.2,0.0799
669.4,0.0789
669.6,0.0789
669.8,0.0794
670,0.0809
670.2,0.0789
670.4,0.0801
670.6,0.0808
670.8,0.0821
671,0.0819
671.2,0.0808
671.4,0.0831
671.6,0.0836
671.8,0.083
672,0.0836
672.2,0.0836
672.4,0.0828
672.6,0.0827
672.8,0.083
673,0.0835
673.2,0.0855
673.4,0.0831
673.6,0.0856
673.8,0.0866
674,0.086
674.2,0.0875
674.4,0.0865
674.6,0.0855
674.8,0.0868
675,0.0879
675.2,0.0892
675.4,0.0875
675.6,0.0865
675.8,0.0871
676,0.0851
676.2,0.0897
676.4,0.0869
676.6,0.0897
676.8,0.0886
677,0.0917
677.2,0.0899
677.4,0.0893
677.6,0.0897
677.8,0.0885
678,0.0918
678.2,0.0905
678.4,0.0916
678.6,0.0901
678.8,0.0928
679,0.0928
679.2,0.0937
679.4,0.093
679.6,0.0913
679.8,0.0933
680,0.0924
680.2,0.0919
680.4,0.0939
680.6,0.0943
680.8,0.0946
681,0.0929
681.2,0.0965
681.4,0.0955
681.6,0.0963
681.8,0.0962
682,0.0943
682.2,0.0975
682.4,0.0974
682.6,0.0957
682.8,0.0967
683,0.0982
683.2,0.0977
683.4,0.0992
683.6,0.0974
683.8,0.0989
684,0.0983
684.2,0.0967
684.4,0.098
684.6,0.0992
684.8,0.0997
685,0.1014
685.2,0.1004
685.4,0.1019
685.6,0.1012
685.8,0.1012
686,0.1018
686.2,0.1041
686.4,0.1012
686.6,0.1022
686.8,0.1024
687,0.1038
687.2,0.1036
687.4,0.1018
687.6,0.1027
687.8,0.1034
688,0.105
688.2,0.1052
688.4,0.1029
688.6,0.105
688.8,0.1068
689,0.1035
689.2,0.1033
689.4,0.103
689.6,0.1066
689.8,0.1071
690,0.1037
690.2,0.1063
690.4,0.1065
690.6,0.1084
690.8,0.1069
691,0.1078
691.2,0.1069
691.4,0.1077
691.6,0.1071
691.8,0.1081
692,0.1073
692.2,0.1087
692.4,0.1072
692.6,0.1097
692.8,0.1095
693,0.1114
693.2,0.1091
693.4,0.1087
693.6,0.1098
693.8,0.1117
694,0.1092
694.2,0.1112
694.4,0.1105
694.6,0.1126
694.8,0.1101
695,0.1108
695.2,0.1134
695.4,0.1131
695.6,0.1143
695.8,0.1153
696,0.1118
696.2,0.1144
696.4,0.1139
696.6,0.1153
696.8,0.1144
697,0.1154
697.2,0.1135
697.4,0.115
697.6,0.1148
697.8,0.1155
698,0.1154
698.2,0.1147
698.4,0.1143
698.6,0.1153
698.8,0.1153
699,0.1162
699.2,0.1169
699.4,0.1163
699.6,0.1168
699.8,0.1171
700,0.1184
700.2,0.1167
700.4,0.1172
700.6,0.1188
700.8,0.1193
701,0.1197
701.2,0.1195
701.4,0.118
701.6,0.1204
701.8,0.1194
702,0.1201
702.2,0.1197
702.4,0.1201
702.6,0.1207
702.8,0.1202
703,0.1191
703.2,0.1215
703.4,0.1215
703.6,0.1218
703.8,0.1208
704,0.1226
704.2,0.121
704.4,0.123
704.6,0.1214
704.8,0.1218
705,0.1234
705.2,0.1221
705.4,0.1233
705.6,0.1226
705.8,0.1245
706,0.1238
706.2,0.1241
706.4,0.1244
706.6,0.1238
706.8,0.1243
707,0.1236
707.2,0.1256
707.4,0.1252
707.6,0.1261
707.8,0.1254
708,0.126
708.2,0.1266
708.4,0.126
708.6,0.1263
708.8,0.1263
709,0.1269
709.2,0.126
709.4,0.1284
709.6,0.1301
709.8,0.129
710,0.1291
710.2,0.1283
710.4,0.129
710.6,0.1283
710.8,0.1289
711,0.1313
711.2,0.1281
711.4,0.1283
711.6,0.1303
711.8,0.1312
712,0.13
712.2,0.1311
712.4,0.1308
712.6,0.1313
712.8,0.1313
713,0.1305
713.2,0.1307
713.4,0.1312
713.6,0.1312
713.8,0.1321
714,0.1314
714.2,0.1335
714.4,0.1324
714.6,0.1326
714.8,0.133
715,0.1329
715.2,0.1324
715.4,0.1341
715.6,0.1331
715.8,0.1329
716,0.1328
716.2,0.1336
716.4,0.1341
716.6,0.1325
716.8,0.1334
717,0.136
717.2,0.1334
717.4,0.1347
717.6,0.1354
717.8,0.1344
718,0.1352
718.2,0.1355
718.4,0.1349
718.6,0.1349
718.8,0.136
719,0.1361
719.2,0.1363
719.4,0.1367
719.6,0.1359
719.8,0.1367
720,0.1376
720.2,0.1372
720.4,0.1375
720.6,0.1378
720.8,0.137
721,0.1375
721.2,0.1373
721.4,0.1348
721.6,0.1389
721.8,0.1375
722,0.1374
722.2,0.1376
722.4,0.1382
722.6,0.1388
722.8,0.1382
723,0.14
723.2,0.1398
723.4,0.1393
723.6,0.1403
723.8,0.1391
724,0.1386
724.2,0.1398
724.4,0.1388
724.6,0.1403
724.8,0.1402
725,0.1401
725.2,0.1392
725.4,0.1404
725.6,0.1401
725.8,0.1413
726,0.1411
726.2,0.1412
726.4,0.1423
726.6,0.141
726.8,0.1404
727,0.1412
727.2,0.1414
727.4,0.14
727.6,0.1418
727.8,0.1415
728,0.1436
728.2,0.1416
728.4,0.1435
728.6,0.1439
728.8,0.1401
729,0.1418
729.2,0.1423
729.4,0.143
729.6,0.1433
729.8,0.1427
730,0.1423
730.2,0.1415
730.4,0.1427
730.6,0.1433
730.8,0.1437
731,0.1443
731.2,0.1447
731.4,0.1435
731.6,0.1433
731.8,0.1449
732,0.1448
732.2,0.1463
732.4,0.1455
732.6,0.1446
732.8,0.1458
733,0.1463
733.2,0.1445
733.4,0.1463
733.6,0.1463
733.8,0.1465
734,0.1466
734.2,0.1483
734.4,0.1467
734.6,0.1473
734.8,0.1462
735,0.1461
735.2,0.1477
735.4,0.1447
735.6,0.1468
735.8,0.1481
736,0.1467
736.2,0.148
736.4,0.1464
736.6,0.1489
736.8,0.146
737,0.1475
737.2,0.1485
737.4,0.1484
737.6,0.1483
737.8,0.1482
738,0.1492
738.2,0.1497
738.4,0.1495
738.6,0.1494
738.8,0.1496
739,0.15
739.2,0.1488
739.4,0.1511
739.6,0.1501
739.8,0.148
740,0.1505
740.2,0.1508
740.4,0.1504
740.6,0.151
740.8,0.1507
741,0.1501
741.2,0.1511
741.4,0.1531
741.6,0.1521
741.8,0.1511
742,0.1507
742.2,0.152
742.4,0.1527
742.6,0.1531
742.8,0.1513
743,0.152
743.2,0.1517
743.4,0.1525
743.6,0.1522
743.8,0.1517
744,0.1515
744.2,0.1534
744.4,0.153
744.6,0.1526
744.8,0.1539
745,0.156
745.2,0.1539
745.4,0.154
745.6,0.1516
745.8,0.153
746,0.1537
746.2,0.155
746.4,0.1541
746.6,0.1517
746.8,0.1541
747,0.1518
747.2,0.1552
747.4,0.1539
747.6,0.1552
747.8,0.1541
748,0.1536
748.2,0.1547
748.4,0.1526
748.6,0.1565
748.8,0.1538
749,0.1551
749.2,0.1563
749.4,0.1566
749.6,0.155
749.8,0.1558
750,0.1554
750.2,0.1563
750.4,0.1545
750.6,0.1567
750.8,0.1555
751,0.1568
751.2,0.1553
751.4,0.1579
751.6,0.1546
751.8,0.1571
752,0.1571
752.2,0.157
752.4,0.1573
752.6,0.1548
752.8,0.1566
753,0.1559
753.2,0.1573
753.4,0.1576
753.6,0.1555
753.8,0.1577
754,0.16
754.2,0.157
754.4,0.1577
754.6,0.1594
754.8,0.1561
755,0.159
755.2,0.1609
755.4,0.1582
755.6,0.1588
755.8,0.1571
756,0.1589
756.2,0.1586
756.4,0.1575
756.6,0.1596
756.8,0.1611
757,0.1598
757.2,0.1602
757.4,0.1561
757.6,0.1606
757.8,0.1599
758,0.1593
758.2,0.1605
758.4,0.1606
758.6,0.1588
758.8,0.1611
759,0.1602
759.2,0.1599
759.4,0.1613
759.6,0.1586
759.8,0.1617
760,0.1599
760.2,0.16
760.4,0.1614
760.6,0.1627
760.8,0.16
761,0.1609
761.2,0.1619
761.4,0.1603
761.6,0.1621
761.8,0.1614
762,0.1626
762.2,0.1603
762.4,0.1623
762.6,0.162
762.8,0.1631
763,0.1616
763.2,0.1618
763.4,0.1619
763.6,0.1612
763.8,0.1616
764,0.1625
764.2,0.1626
764.4,0.1642
764.6,0.1626
764.8,0.1636
765,0.1627
765.2,0.1628
765.4,0.1604
765.6,0.1637
765.8,0.1633
766,0.1612
766.2,0.1639
766.4,0.1625
766.6,0.1635
766.8,0.1632
767,0.1618
767.2,0.1631
767.4,0.1622
767.6,0.1636
767.8,0.1671
768,0.162
768.2,0.1651
768.4,0.1617
768.6,0.1635
768.8,0.1653
769,0.1653
769.2,0.1638
769.4,0.1652
769.6,0.1642
769.8,0.1683
770,0.1628
770.2,0.1625
770.4,0.1659
770.6,0.1645
770.8,0.1665
771,0.1665
771.2,0.1634
771.4,0.1666
771.6,0.1657
771.8,0.1651
772,0.1646
772.2,0.1641
772.4,0.167
772.6,0.1661
772.8,0.1656
773,0.1645
773.2,0.1671
773.4,0.1677
773.6,0.1649
773.8,0.1651
774,0.1622
774.2,0.1644
774.4,0.1659
774.6,0.1666
774.8,0.1641
775,0.1686
775.2,0.1666
775.4,0.1676
775.6,0.1671
775.8,0.1678
776,0.1677
776.2,0.1665
776.4,0.1656
776.6,0.1664
776.8,0.1664
777,0.1668
777.2,0.1666
777.4,0.1664
777.6,0.166
777.8,0.1669
778,0.1677
778.2,0.17
778.4,0.1718
778.6,0.1698
778.8,0.1686
779,0.1677
779.2,0.1685
779.4,0.168
779.6,0.1698
779.8,0.1677
780,0.1677
780.2,0.168
780.4,0.1695
780.6,0.1689
780.8,0.1689
781,0.1704
781.2,0.1641
781.4,0.1731
781.6,0.17
781.8,0.1692
782,0.1723
782.2,0.1694
782.4,0.1673
782.6,0.1715
782.8,0.1684
783,0.1704
783.2,0.1683
783.4,0.1678
783.6,0.1702
783.8,0.1677
784,0.1715
784.2,0.1684
784.4,0.1695
784.6,0.1689
784.8,0.1674
785,0.169
785.2,0.1689
785.4,0.1659
785.6,0.1686
785.8,0.1698
786,0.1718
786.2,0.1719
786.4,0.1695
786.6,0.1702
786.8,0.1744
787,0.1718
787.2,0.1704
787.4,0.1686
787.6,0.1712
787.8,0.1703
788,0.1683
788.2,0.1725
788.4,0.1723
788.6,0.1697
788.8,0.1715
789,0.1713
789.2,0.1702
789.4,0.1698
789.6,0.1712
789.8,0.1738
790,0.1725
790.2,0.1725
790.4,0.1726
790.6,0.1698
790.8,0.171
791,0.1749
791.2,0.1688
791.4,0.1719
791.6,0.172
791.8,0.1743
792,0.172
792.2,0.1713
792.4,0.1689
792.6,0.1693
792.8,0.1705
793,0.1711
793.2,0.173
793.4,0.1731
793.6,0.1705
793.8,0.1751
794,0.1715
794.2,0.1721
794.4,0.1667
794.6,0.1744
794.8,0.1722
795,0.174
795.2,0.1729
795.4,0.1704
795.6,0.1754
795.8,0.1731
796,0.1734
796.2,0.1725
796.4,0.1704
796.6,0.1745
796.8,0.1717
797,0.1727
797.2,0.1737
797.4,0.1739
797.6,0.1713
797.8,0.1717
798,0.172
798.2,0.1714
798.4,0.1757
798.6,0.176
798.8,0.1738
799,0.1726
799.2,0.1747
799.4,0.1715
799.6,0.1734
799.8,0.1756
800,0.1709